time_s,ch0_uv,ch0_lead_off
0.000000,-1712.50,1
0.005556,-1712.50,1
0.011111,-1712.50,1
0.016667,-1712.50,1
0.022222,-1712.50,1
0.027778,-1712.50,1
0.033333,-1712.50,1
0.038889,-1712.50,1
0.044444,-1712.50,1
0.050000,-1712.50,1
0.055556,-1712.50,1
0.061111,-1712.50,1
0.066667,-1712.50,1
0.072222,-1712.50,1
0.077778,-450.00,0
0.083333,5087.50,0
0.088889,-8487.50,0
0.094444,-1712.50,1
0.100000,-9275.00,0
0.105556,7487.50,0
0.111111,5112.50,0
0.116667,-4912.50,0
0.122222,-1675.00,0
0.127778,15087.50,0
0.133333,5112.50,0
0.138889,13487.50,0
0.144444,-4287.50,0
0.150000,-1712.50,1
0.155556,8312.50,0
0.161111,5287.50,0
0.166667,-8487.50,0
0.172222,-1712.50,1
0.177778,21512.50,0
0.183333,7487.50,0
0.188889,5112.50,0
0.194444,-4912.50,0
0.200000,-2087.50,0
0.205556,12487.50,0
0.211111,5112.50,0
0.216667,-11512.50,0
0.222222,-1675.00,0
0.227778,-9512.50,0
0.233333,8312.50,0
0.238889,5287.50,0
0.244444,-3687.50,0
0.250000,-1712.50,1
0.255556,11712.50,0
0.261111,5137.50,0
0.266667,16712.50,0
0.272222,-4912.50,0
0.277778,-2075.00,0
0.283333,7287.50,0
0.288889,5112.50,0
0.294444,-8312.50,0
0.300000,-1625.00,0
0.305556,18687.50,0
0.311111,8312.50,0
0.316667,5687.50,0
0.322222,-4087.50,0
0.327778,-1712.50,1
0.333333,11712.50,0
0.338889,5175.00,0
0.344444,-11887.50,0
0.350000,-1712.50,1
0.355556,-6687.50,0
0.361111,7487.50,0
0.366667,5112.50,0
0.372222,-4912.50,0
0.377778,-1675.00,0
0.383333,11687.50,0
0.388889,5112.50,0
0.394444,17087.50,0
0.400000,-4287.50,0
0.405556,-1712.50,1
0.411111,8312.50,0
0.416667,5287.50,0
0.422222,-8487.50,0
0.427778,-1712.50,1
0.433333,18312.50,0
0.438889,7487.50,0
0.444444,5112.50,0
0.450000,-4912.50,0
0.455556,-2087.50,0
0.461111,12487.50,0
0.466667,5112.50,0
0.472222,-11512.50,0
0.477778,-1675.00,0
0.483333,-9112.50,0
0.488889,8312.50,0
0.494444,5287.50,0
0.500000,-3887.50,0
0.505556,-1712.50,1
0.511111,11712.50,0
0.516667,5137.50,0
0.522222,13512.50,0
0.527778,-4912.50,0
0.533333,-2075.00,0
0.538889,7287.50,0
0.544444,5112.50,0
0.550000,-8312.50,0
0.555556,-1625.00,0
0.561111,25287.50,0
0.566667,8312.50,0
0.572222,5687.50,0
0.577778,-4087.50,0
0.583333,-1712.50,1
0.588889,11712.50,0
0.594444,5175.00,0
0.600000,-11887.50,0
0.605556,-1712.50,1
0.611111,-9487.50,0
0.616667,7487.50,0
0.622222,5112.50,0
0.627778,-4912.50,0
0.633333,-1675.00,0
0.638889,11687.50,0
0.644444,5112.50,0
0.650000,16887.50,0
0.655556,-4287.50,0
0.661111,-1712.50,1
0.666667,8512.50,0
0.672222,5087.50,0
0.677778,-8487.50,0
0.683333,-1712.50,1
0.688889,18312.50,0
0.694444,7487.50,0
0.700000,5112.50,0
0.705556,-4912.50,0
0.711111,-1887.50,0
0.716667,12087.50,0
0.722222,5112.50,0
0.727778,-11512.50,0
0.733333,-1675.00,0
0.738889,-9112.50,0
0.744444,8312.50,0
0.750000,5287.50,0
0.755556,-3887.50,0
0.761111,-1712.50,1
0.766667,11712.50,0
0.772222,5137.50,0
0.777778,13312.50,0
0.783333,-4912.50,0
0.788889,-2075.00,0
0.794444,7487.50,0
0.800000,5112.50,0
0.805556,-8312.50,0
0.811111,-1625.00,0
0.816667,21687.50,0
0.822222,8312.50,0
0.827778,5887.50,0
0.833333,-4087.50,0
0.838889,-1712.50,1
0.844444,11512.50,0
0.850000,5162.50,0
0.855556,-11487.50,0
0.861111,-1712.50,1
0.866667,-9087.50,0
0.872222,7487.50,0
0.877778,5112.50,0
0.883333,-4912.50,0
0.888889,-1662.50,0
0.894444,14887.50,0
0.900000,5112.50,0
0.905556,10487.50,0
0.911111,-4287.50,0
0.916667,-1712.50,1
0.922222,8512.50,0
0.927778,5075.00,0
0.933333,-8687.50,0
0.938889,-1712.50,1
0.944444,-16887.50,0
0.950000,7687.50,0
0.955556,5112.50,0
0.961111,-4912.50,0
0.966667,-2087.50,0
0.972222,12287.50,0
0.977778,5112.50,0
0.983333,-11512.50,0
0.988889,-1675.00,0
0.994444,-9112.50,0
1.000000,8312.50,0
1.005556,5287.50,0
1.011111,-3887.50,0
1.016667,-1712.50,1
1.022222,11712.50,0
1.027778,5012.50,0
1.033333,13312.50,0
1.038889,-4912.50,0
1.044444,-2075.00,0
1.050000,7487.50,0
1.055556,5112.50,0
1.061111,-8312.50,0
1.066667,-1637.50,0
1.072222,25087.50,0
1.077778,8312.50,0
1.083333,5675.00,0
1.088889,-4087.50,0
1.094444,-1712.50,1
1.100000,11512.50,0
1.105556,5062.50,0
1.111111,-11487.50,0
1.116667,-1712.50,1
1.122222,-9087.50,0
1.127778,7487.50,0
1.133333,5112.50,0
1.138889,-4912.50,0
1.144444,-1662.50,0
1.150000,11687.50,0
1.155556,5112.50,0
1.161111,13687.50,0
1.166667,-4287.50,0
1.172222,-1712.50,1
1.177778,8512.50,0
1.183333,5075.00,0
1.188889,-8687.50,0
1.194444,-1712.50,1
1.200000,-23087.50,0
1.205556,7687.50,0
1.211111,5112.50,0
1.216667,-4912.50,0
1.222222,-2087.50,0
1.227778,12087.50,0
1.233333,5112.50,0
1.238889,-11512.50,0
1.244444,-1675.00,0
1.250000,-9112.50,0
1.255556,8312.50,0
1.261111,5287.50,0
1.266667,-3887.50,0
1.272222,-1712.50,1
1.277778,11712.50,0
1.283333,5025.00,0
1.288889,13312.50,0
1.294444,-4912.50,0
1.300000,-2075.00,0
1.305556,7487.50,0
1.311111,5112.50,0
1.316667,-8312.50,0
1.322222,-1650.00,0
1.327778,-19912.50,0
1.333333,8312.50,0
1.338889,5687.50,0
1.344444,-4087.50,0
1.350000,-1712.50,1
1.355556,11712.50,0
1.361111,5025.00,0
1.366667,-11687.50,0
1.372222,-1712.50,1
1.377778,-6687.50,0
1.383333,7487.50,0
1.388889,5112.50,0
1.394444,-4912.50,0
1.400000,-1675.00,0
1.405556,14887.50,0
1.411111,5112.50,0
1.416667,13687.50,0
1.422222,-4287.50,0
1.427778,-1712.50,1
1.433333,8312.50,0
1.438889,5275.00,0
1.444444,-11887.50,0
1.450000,-1712.50,1
1.455556,24712.50,0
1.461111,7687.50,0
1.466667,5112.50,0
1.472222,-4912.50,0
1.477778,-2075.00,0
1.483333,12287.50,0
1.488889,5112.50,0
1.494444,-11512.50,0
1.500000,-1887.50,0
1.505556,-8512.50,0
1.511111,8312.50,0
1.516667,5487.50,0
1.522222,-3887.50,0
1.527778,-1712.50,1
1.533333,14912.50,0
1.538889,5037.50,0
1.544444,10112.50,0
1.550000,-4912.50,0
1.555556,-2075.00,0
1.561111,7287.50,0
1.566667,5112.50,0
1.572222,-11512.50,0
1.577778,-1750.00,0
1.583333,-13312.50,0
1.588889,8312.50,0
1.594444,5675.00,0
1.600000,-4087.50,0
1.605556,-1712.50,1
1.611111,11512.50,0
1.616667,5012.50,0
1.622222,-11487.50,0
1.627778,-1712.50,1
1.633333,-9075.00,0
1.638889,7487.50,0
1.644444,5112.50,0
1.650000,-4912.50,0
1.655556,-1662.50,0
1.661111,11687.50,0
1.666667,5112.50,0
1.672222,13687.50,0
1.677778,-4287.50,0
1.683333,-1712.50,1
1.688889,-23537.50,0
1.694444,17600.00,0
1.700000,-23362.50,0
1.705556,-25600.00,0
1.711111,9587.50,0
1.716667,-23000.00,0
1.722222,-18800.00,0
1.727778,-15162.50,0
1.733333,3812.50,0
1.738889,-6125.00,0
1.744444,3600.00,0
1.750000,-5925.00,0
1.755556,-15600.00,0
1.761111,-11562.50,0
1.766667,-25200.00,0
1.772222,-15762.50,0
1.777778,-25200.00,0
1.783333,-15762.50,0
1.788889,-25200.00,0
1.794444,-15962.50,0
1.800000,-25200.00,0
1.805556,-15962.50,0
1.811111,-25200.00,0
1.816667,-15762.50,0
1.822222,-22000.00,0
1.827778,-12550.00,0
1.833333,16125.00,0
1.838889,-23600.00,0
1.844444,8312.50,0
1.850000,5262.50,0
1.855556,-8687.50,0
1.861111,-1712.50,1
1.866667,-16887.50,0
1.872222,-4837.50,0
1.877778,5112.50,0
1.883333,-4925.00,0
1.888889,-2362.50,0
1.894444,10862.50,0
1.900000,5112.50,0
1.905556,-8325.00,0
1.911111,-5937.50,0
1.916667,-4925.00,0
1.922222,5112.50,0
1.927778,5437.50,0
1.933333,-10862.50,0
1.938889,-1712.50,1
1.944444,11512.50,0
1.950000,5125.00,0
1.955556,10625.00,0
1.961111,-1712.50,1
1.966667,-5262.50,0
1.972222,-8125.00,0
1.977778,5112.50,0
1.983333,-5125.00,0
1.988889,-1712.50,1
1.994444,16337.50,0
2.000000,5112.50,0
2.005556,11850.00,0
2.011111,14737.50,0
2.016667,-1712.50,1
2.022222,8525.00,0
2.027778,5125.00,0
2.033333,-24762.50,0
2.038889,-1712.50,1
2.044444,-6675.00,0
2.050000,-8125.00,0
2.055556,5112.50,0
2.061111,-4912.50,0
2.066667,-1937.50,0
2.072222,7150.00,0
2.077778,5112.50,0
2.083333,-11725.00,0
2.088889,-17275.00,0
2.094444,-1712.50,1
2.100000,5112.50,0
2.105556,5550.00,0
2.111111,-10650.00,0
2.116667,-1712.50,1
2.122222,-17075.00,0
2.127778,-8125.00,0
2.133333,5112.50,0
2.138889,-1712.50,1
2.144444,-5362.50,0
2.150000,17250.00,0
2.155556,5112.50,0
2.161111,-8112.50,0
2.166667,-4212.50,0
2.172222,-4925.00,0
2.177778,5112.50,0
2.183333,5350.00,0
2.188889,11525.00,0
2.194444,-1712.50,1
2.200000,8312.50,0
2.205556,5112.50,0
2.211111,7475.00,0
2.216667,-1712.50,1
2.222222,-5462.50,0
2.227778,7650.00,0
2.233333,5112.50,0
2.238889,17250.00,0
2.244444,-1712.50,1
2.250000,-1075.00,0
2.255556,8312.50,0
2.261111,14950.00,0
2.266667,-14062.50,0
2.272222,-1712.50,1
2.277778,11512.50,0
2.283333,5550.00,0
2.288889,-11525.00,0
2.294444,-1712.50,1
2.300000,-5137.50,0
2.305556,-4925.00,0
2.311111,5125.00,0
2.316667,7887.50,0
2.322222,-1712.50,1
2.327778,19887.50,0
2.333333,5112.50,0
2.338889,13925.00,0
2.344444,17912.50,0
2.350000,-1712.50,1
2.355556,8312.50,0
2.361111,4150.00,0
2.366667,-7337.50,0
2.372222,-1712.50,1
2.377778,18112.50,0
2.383333,-4912.50,0
2.388889,5112.50,0
2.394444,-1712.50,1
2.400000,-2425.00,0
2.405556,7675.00,0
2.411111,5112.50,0
2.416667,20062.50,0
2.422222,-20275.00,0
2.427778,-1750.00,0
2.433333,-5487.50,0
2.438889,14325.00,0
2.444444,11550.00,0
2.450000,-1712.50,1
2.455556,5112.50,0
2.461111,5112.50,0
2.466667,5112.50,0
2.472222,5112.50,0
2.477778,5325.00,0
2.483333,4687.50,0
2.488889,5112.50,0
2.494444,-1712.50,1
2.500000,-1712.50,1
2.505556,-1712.50,1
2.511111,-4512.50,0
2.516667,-8312.50,0
2.522222,-10887.50,0
2.527778,-1712.50,1
2.533333,21312.50,0
2.538889,5112.50,0
2.544444,-18287.50,0
2.550000,-1650.00,0
2.555556,-16462.50,0
2.561111,-17737.50,0
2.566667,5125.00,0
2.572222,-1712.50,1
2.577778,-1712.50,1
2.583333,-11312.50,0
2.588889,5487.50,0
2.594444,4687.50,0
2.600000,5087.50,0
2.605556,5087.50,0
2.611111,5112.50,0
2.616667,14912.50,0
2.622222,-675.00,0
2.627778,-1712.50,1
2.633333,-1712.50,1
2.638889,-8112.50,0
2.644444,4687.50,0
2.650000,-4912.50,0
2.655556,-1712.50,1
2.661111,11087.50,0
2.666667,5112.50,0
2.672222,-4912.50,0
2.677778,-11312.50,0
2.683333,-1712.50,1
2.688889,4687.50,0
2.694444,4687.50,0
2.700000,-8112.50,0
2.705556,-1287.50,0
2.711111,11512.50,0
2.716667,5112.50,0
2.722222,8312.50,0
2.727778,-1287.50,0
2.733333,-1287.50,0
2.738889,8312.50,0
2.744444,5112.50,0
2.750000,-1287.50,0
2.755556,-1087.50,0
2.761111,-4287.50,0
2.766667,5112.50,0
2.772222,11925.00,0
2.777778,21125.00,0
2.783333,-1712.50,1
2.788889,11525.00,0
2.794444,5125.00,0
2.800000,-12175.00,0
2.805556,-1725.00,0
2.811111,-3462.50,0
2.816667,-11325.00,0
2.822222,5112.50,0
2.827778,-1712.50,1
2.833333,-1725.00,0
2.838889,9150.00,0
2.844444,5112.50,0
2.850000,10475.00,0
2.855556,8337.50,0
2.861111,-1712.50,1
2.866667,5112.50,0
2.872222,5537.50,0
2.877778,-7462.50,0
2.883333,-1712.50,1
2.888889,-7275.00,0
2.894444,-8137.50,0
2.900000,5112.50,0
2.905556,-4912.50,0
2.911111,-2425.00,0
2.916667,14050.00,0
2.922222,5112.50,0
2.927778,-11525.00,0
2.933333,11537.50,0
2.938889,-1712.50,1
2.944444,5112.50,0
2.950000,7462.50,0
2.955556,-13850.00,0
2.961111,-1712.50,1
2.966667,11725.00,0
2.972222,5325.00,0
2.977778,11862.50,0
2.983333,-1712.50,1
2.988889,-2475.00,0
2.994444,20675.00,0
3.000000,5112.50,0
3.005556,-8112.50,0
3.011111,-1725.00,0
3.016667,-10487.50,0
3.022222,5112.50,0
3.027778,8662.50,0
3.033333,14737.50,0
3.038889,-1712.50,1
3.044444,8325.00,0
3.050000,5125.00,0
3.055556,-11750.00,0
3.061111,-1712.50,1
3.066667,-8850.00,0
3.072222,-8125.00,0
3.077778,5112.50,0
3.083333,-4912.50,0
3.088889,-1712.50,1
3.094444,18525.00,0
3.100000,5112.50,0
3.105556,10125.00,0
3.111111,11525.00,0
3.116667,-1712.50,1
3.122222,8312.50,0
3.127778,5575.00,0
3.133333,-10537.50,0
3.138889,-1712.50,1
3.144444,-10450.00,0
3.150000,-8125.00,0
3.155556,5112.50,0
3.161111,-4912.50,0
3.166667,-2350.00,0
3.172222,17262.50,0
3.177778,5112.50,0
3.183333,-4925.00,0
3.188889,11512.50,0
3.194444,-1725.00,0
3.200000,5125.00,0
3.205556,5275.00,0
3.211111,-7687.50,0
3.216667,-1712.50,1
3.222222,18087.50,0
3.227778,5112.50,0
3.233333,5525.00,0
3.238889,-1712.50,1
3.244444,-1762.50,0
3.250000,5137.50,0
3.255556,5112.50,0
3.261111,5087.50,0
3.266667,5087.50,0
3.272222,5125.00,0
3.277778,5112.50,0
3.283333,5037.50,0
3.288889,5125.00,0
3.294444,5087.50,0
3.300000,5112.50,0
3.305556,-1687.50,0
3.311111,5075.00,0
3.316667,20487.50,0
3.322222,5125.00,0
3.327778,-1962.50,0
3.333333,-1687.50,0
3.338889,-1712.50,1
3.344444,5087.50,0
3.350000,5162.50,0
3.355556,-10687.50,0
3.361111,-1662.50,0
3.366667,5125.00,0
3.372222,5087.50,0
3.377778,5112.50,0
3.383333,-5087.50,0
3.388889,5125.00,0
3.394444,5087.50,0
3.400000,5137.50,0
3.405556,-2062.50,0
3.411111,-1687.50,0
3.416667,-1750.00,0
3.422222,5087.50,0
3.427778,-1712.50,1
3.433333,-1725.00,0
3.438889,-1712.50,1
3.444444,-1712.50,1
3.450000,-1712.50,1
3.455556,-1712.50,1
3.461111,-1625.00,0
3.466667,-1675.00,0
3.472222,5087.50,0
3.477778,5112.50,0
3.483333,17312.50,0
3.488889,-1687.50,0
3.494444,-4887.50,0
3.500000,5125.00,0
3.505556,5087.50,0
3.511111,-1687.50,0
3.516667,5087.50,0
3.522222,5087.50,0
3.527778,5175.00,0
3.533333,-23537.50,0
3.538889,17600.00,0
3.544444,-23362.50,0
3.550000,-25600.00,0
3.555556,19187.50,0
3.561111,-19200.00,0
3.566667,-8975.00,0
3.572222,-14362.50,0
3.577778,22800.00,0
3.583333,-9550.00,0
3.588889,-12400.00,0
3.594444,-15762.50,0
3.600000,3600.00,0
3.605556,-5725.00,0
3.611111,3600.00,0
3.616667,-6125.00,0
3.622222,3600.00,0
3.627778,-5925.00,0
3.633333,-25200.00,0
3.638889,-19162.50,0
3.644444,-21800.00,0
3.650000,-19162.50,0
3.655556,-21800.00,0
3.661111,-23562.50,0
3.666667,-25437.50,0
3.672222,-15575.00,0
3.677778,662.50,0
3.683333,-19162.50,0
3.688889,-1687.50,0
3.694444,-1625.00,0
3.700000,-1687.50,0
3.705556,5087.50,0
3.711111,5112.50,0
3.716667,-1675.00,0
3.722222,-1750.00,0
3.727778,-1712.50,1
3.733333,-1775.00,0
3.738889,-1725.00,0
3.744444,-4887.50,0
3.750000,-1712.50,1
3.755556,-1712.50,1
3.761111,-1725.00,0
3.766667,5112.50,0
3.772222,-5137.50,0
3.777778,14725.00,0
3.783333,-1712.50,1
3.788889,5112.50,0
3.794444,5112.50,0
3.800000,5112.50,0
3.805556,17487.50,0
3.811111,5112.50,0
3.816667,-7687.50,0
3.822222,5112.50,0
3.827778,-1712.50,1
3.833333,17462.50,0
3.838889,-4912.50,0
3.844444,5112.50,0
3.850000,-8350.00,0
3.855556,-1262.50,0
3.861111,-1712.50,1
3.866667,-1287.50,0
3.872222,-1962.50,0
3.877778,-675.00,0
3.883333,-1712.50,1
3.888889,11112.50,0
3.894444,-1712.50,1
3.900000,3487.50,0
3.905556,8275.00,0
3.911111,5325.00,0
3.916667,4687.50,0
3.922222,5112.50,0
3.927778,4687.50,0
3.933333,-4912.50,0
3.938889,18750.00,0
3.944444,5112.50,0
3.950000,18337.50,0
3.955556,14725.00,0
3.961111,-1712.50,1
3.966667,5150.00,0
3.972222,5137.50,0
3.977778,-1662.50,0
3.983333,-1725.00,0
3.988889,-2475.00,0
3.994444,-8362.50,0
4.000000,5112.50,0
4.005556,-4912.50,0
4.011111,-1925.00,0
4.016667,20162.50,0
4.022222,5112.50,0
4.027778,10662.50,0
4.033333,14737.50,0
4.038889,-1712.50,1
4.044444,5112.50,0
4.050000,5337.50,0
4.055556,-13975.00,0
4.061111,-1712.50,1
4.066667,-7062.50,0
4.072222,-8125.00,0
4.077778,5112.50,0
4.083333,-4912.50,0
4.088889,-800.00,0
4.094444,14037.50,0
4.100000,5112.50,0
4.105556,-8125.00,0
4.111111,14737.50,0
4.116667,-1712.50,1
4.122222,5112.50,0
4.127778,3225.00,0
4.133333,-10862.50,0
4.138889,-1712.50,1
4.144444,14925.00,0
4.150000,5525.00,0
4.155556,15162.50,0
4.161111,-1712.50,1
4.166667,-2237.50,0
4.172222,20662.50,0
4.177778,5112.50,0
4.183333,-11512.50,0
4.188889,-1712.50,1
4.194444,-13275.00,0
4.200000,5112.50,0
4.205556,8837.50,0
4.211111,17937.50,0
4.216667,-1712.50,1
4.222222,8312.50,0
4.227778,5312.50,0
4.233333,-15525.00,0
4.238889,-1712.50,1
4.244444,-5862.50,0
4.250000,-8125.00,0
4.255556,5112.50,0
4.261111,-4912.50,0
4.266667,-1925.00,0
4.272222,12550.00,0
4.277778,5112.50,0
4.283333,10662.50,0
4.288889,11525.00,0
4.294444,-1712.50,1
4.300000,8312.50,0
4.305556,5537.50,0
4.311111,-7375.00,0
4.316667,-1712.50,1
4.322222,-10475.00,0
4.327778,-8125.00,0
4.333333,5112.50,0
4.338889,-1712.50,1
4.344444,-2362.50,0
4.350000,7637.50,0
4.355556,5112.50,0
4.361111,-17925.00,0
4.366667,11537.50,0
4.372222,-1712.50,1
4.377778,5112.50,0
4.383333,7412.50,0
4.388889,-10850.00,0
4.394444,-1712.50,1
4.400000,11725.00,0
4.405556,5525.00,0
4.411111,14937.50,0
4.416667,-1712.50,1
4.422222,-5437.50,0
4.427778,-11337.50,0
4.433333,5112.50,0
4.438889,-4912.50,0
4.444444,-1712.50,1
4.450000,-13475.00,0
4.455556,5112.50,0
4.461111,8637.50,0
4.466667,14737.50,0
4.472222,-1712.50,1
4.477778,8312.50,0
4.483333,5112.50,0
4.488889,-11725.00,0
4.494444,-1712.50,1
4.500000,-5662.50,0
4.505556,-14525.00,0
4.511111,5112.50,0
4.516667,-4912.50,0
4.522222,-1925.00,0
4.527778,16937.50,0
4.533333,5112.50,0
4.538889,13862.50,0
4.544444,11537.50,0
4.550000,-1712.50,1
4.555556,8312.50,0
4.561111,5537.50,0
4.566667,-13800.00,0
4.572222,-1712.50,1
4.577778,-13875.00,0
4.583333,-8125.00,0
4.588889,5112.50,0
4.594444,-1712.50,1
4.600000,-5550.00,0
4.605556,14037.50,0
4.611111,5112.50,0
4.616667,-14725.00,0
4.622222,11525.00,0
4.627778,-1712.50,1
4.633333,5112.50,0
4.638889,7237.50,0
4.644444,-10650.00,0
4.650000,-1712.50,1
4.655556,11525.00,0
4.661111,5725.00,0
4.666667,14937.50,0
4.672222,-1712.50,1
4.677778,-2025.00,0
4.683333,17462.50,0
4.688889,5112.50,0
4.694444,-8112.50,0
4.700000,-1712.50,1
4.705556,-10212.50,0
4.711111,5112.50,0
4.716667,7050.00,0
4.722222,14725.00,0
4.727778,-1712.50,1
4.733333,8312.50,0
4.738889,5112.50,0
4.744444,-16537.50,0
4.750000,-1712.50,1
4.755556,-5637.50,0
4.761111,-11325.00,0
4.766667,5112.50,0
4.772222,-4925.00,0
4.777778,-1712.50,1
4.783333,15137.50,0
4.788889,5112.50,0
4.794444,12412.50,0
4.800000,14725.00,0
4.805556,-1712.50,1
4.811111,5112.50,0
4.816667,5537.50,0
4.822222,-4162.50,0
4.827778,-1712.50,1
4.833333,24737.50,0
4.838889,-8125.00,0
4.844444,5112.50,0
4.850000,-4912.50,0
4.855556,-2525.00,0
4.861111,14162.50,0
4.866667,5112.50,0
4.872222,-14725.00,0
4.877778,5462.50,0
4.883333,-1737.50,0
4.888889,5137.50,0
4.894444,11925.00,0
4.900000,6262.50,0
4.905556,-1712.50,1
4.911111,5325.00,0
4.916667,-1287.50,0
4.922222,3250.00,0
4.927778,-1737.50,0
4.933333,10075.00,0
4.938889,-2262.50,0
4.944444,5112.50,0
4.950000,-1925.00,0
4.955556,-11312.50,0
4.961111,-3862.50,0
4.966667,5125.00,0
4.972222,10537.50,0
4.977778,4062.50,0
4.983333,-1712.50,1
4.988889,5325.00,0
4.994444,5112.50,0
5.000000,6075.00,0
5.005556,-1737.50,0
5.011111,-15337.50,0
5.016667,-2062.50,0
5.022222,5112.50,0
5.027778,-1925.00,0
5.033333,-1712.50,1
5.038889,-662.50,0
5.044444,5112.50,0
5.050000,-8737.50,0
5.055556,5087.50,0
5.061111,-4112.50,0
5.066667,5712.50,0
5.072222,-17737.50,0
5.077778,7687.50,0
5.083333,-1712.50,1
5.088889,-4287.50,0
5.094444,-1087.50,0
5.100000,5112.50,0
5.105556,-1662.50,0
5.111111,-8537.50,0
5.116667,-10850.00,0
5.122222,5112.50,0
5.127778,-8112.50,0
5.133333,4062.50,0
5.138889,-1712.50,1
5.144444,5337.50,0
5.150000,-17087.50,0
5.155556,6075.00,0
5.161111,-1712.50,1
5.166667,8525.00,0
5.172222,-4487.50,0
5.177778,3825.00,0
5.183333,-1737.50,0
5.188889,-14725.00,0
5.194444,-2462.50,0
5.200000,5112.50,0
5.205556,-1925.00,0
5.211111,-8112.50,0
5.216667,-2650.00,0
5.222222,5125.00,0
5.227778,8525.00,0
5.233333,5662.50,0
5.238889,-1712.50,1
5.244444,5325.00,0
5.250000,8312.50,0
5.255556,4062.50,0
5.261111,-1737.50,0
5.266667,-5525.00,0
5.272222,-2062.50,0
5.277778,5112.50,0
5.283333,-1925.00,0
5.288889,-4912.50,0
5.294444,-3875.00,0
5.300000,5112.50,0
5.305556,10062.50,0
5.311111,5475.00,0
5.316667,-1725.00,0
5.322222,5137.50,0
5.327778,11512.50,0
5.333333,4475.00,0
5.338889,-1712.50,1
5.344444,-7062.50,0
5.350000,-2062.50,0
5.355556,5125.00,0
5.361111,-1737.50,0
5.366667,-8112.50,0
5.372222,-1075.00,0
5.377778,-23537.50,0
5.383333,17600.00,0
5.388889,-23362.50,0
5.394444,-25600.00,0
5.400000,25587.50,0
5.405556,-9550.00,0
5.411111,-12400.00,0
5.416667,-15762.50,0
5.422222,3600.00,0
5.427778,-5725.00,0
5.433333,3600.00,0
5.438889,-6125.00,0
5.444444,3600.00,0
5.450000,-5925.00,0
5.455556,-22000.00,0
5.461111,-19162.50,0
5.466667,-21800.00,0
5.472222,-19162.50,0
5.477778,-21800.00,0
5.483333,-23562.50,0
5.488889,-25437.50,0
5.494444,-15575.00,0
5.500000,662.50,0
5.505556,-19162.50,0
5.511111,-24612.50,0
5.516667,-19137.50,0
5.522222,-21750.00,0
5.527778,-19162.50,0
5.533333,5112.50,0
5.538889,-8537.50,0
5.544444,5275.00,0
5.550000,-1725.00,0
5.555556,5337.50,0
5.561111,11712.50,0
5.566667,3275.00,0
5.572222,-1712.50,1
5.577778,8550.00,0
5.583333,-4287.50,0
5.588889,5462.50,0
5.594444,-1737.50,0
5.600000,-11525.00,0
5.605556,-2075.00,0
5.611111,5112.50,0
5.616667,-1950.00,0
5.622222,-4912.50,0
5.627778,-675.00,0
5.633333,5150.00,0
5.638889,8537.50,0
5.644444,5675.00,0
5.650000,-1712.50,1
5.655556,5525.00,0
5.661111,5112.50,0
5.666667,7675.00,0
5.672222,-1725.00,0
5.677778,-5325.00,0
5.683333,-1712.50,1
5.688889,4687.50,0
5.694444,-1712.50,1
5.700000,-4912.50,0
5.705556,-4912.50,0
5.711111,5475.00,0
5.716667,8312.50,0
5.722222,5112.50,0
5.727778,-1712.50,1
5.733333,5112.50,0
5.738889,5112.50,0
5.744444,5112.50,0
5.750000,-1712.50,1
5.755556,-1712.50,1
5.761111,-887.50,0
5.766667,5112.50,0
5.772222,-1287.50,0
5.777778,-1712.50,1
5.783333,-4912.50,0
5.788889,5112.50,0
5.794444,20687.50,0
5.800000,4687.50,0
5.805556,-1712.50,1
5.811111,4687.50,0
5.816667,11087.50,0
5.822222,4687.50,0
5.827778,-1712.50,1
5.833333,11087.50,0
5.838889,-4912.50,0
5.844444,4687.50,0
5.850000,-1712.50,1
5.855556,-8925.00,0
5.861111,-3150.00,0
5.866667,5800.00,0
5.872222,-5800.00,0
5.877778,-3200.00,0
5.883333,-6400.00,0
5.888889,3200.00,0
5.894444,3400.00,0
5.900000,3200.00,0
5.905556,-200.00,0
5.911111,6400.00,0
5.916667,3400.00,0
5.922222,9400.00,0
5.927778,-3200.00,0
5.933333,-3200.00,0
5.938889,-3200.00,0
5.944444,3200.00,0
5.950000,-3000.00,0
5.955556,-200.00,0
5.961111,-12600.00,0
5.966667,5337.50,0
5.972222,8312.50,0
5.977778,5525.00,0
5.983333,-1712.50,1
5.988889,5312.50,0
5.994444,5112.50,0
6.000000,11512.50,0
6.005556,-1087.50,0
6.011111,-14075.00,0
6.016667,-1287.50,0
6.022222,5112.50,0
6.027778,-1287.50,0
6.033333,-4912.50,0
6.038889,-4912.50,0
6.044444,5050.00,0
6.050000,-8112.50,0
6.055556,4687.50,0
6.061111,-1712.50,1
6.066667,5712.50,0
6.072222,11512.50,0
6.077778,5112.50,0
6.083333,-1712.50,1
6.088889,8525.00,0
6.094444,-1287.50,0
6.100000,5112.50,0
6.105556,-1287.50,0
6.111111,-4912.50,0
6.116667,-1750.00,0
6.122222,5112.50,0
6.127778,-4487.50,0
6.133333,-4912.50,0
6.138889,-4912.50,0
6.144444,5137.50,0
6.150000,5112.50,0
6.155556,5112.50,0
6.161111,-1712.50,1
6.166667,4462.50,0
6.172222,5112.50,0
6.177778,14712.50,0
6.183333,-1287.50,0
6.188889,-4912.50,0
6.194444,-1712.50,1
6.200000,5112.50,0
6.205556,-1287.50,0
6.211111,-1712.50,1
6.216667,-4912.50,0
6.222222,5112.50,0
6.227778,11512.50,0
6.233333,5112.50,0
6.238889,-1712.50,1
6.244444,4687.50,0
6.250000,5112.50,0
6.255556,8312.50,0
6.261111,-1712.50,1
6.266667,-8112.50,0
6.272222,-1712.50,1
6.277778,5112.50,0
6.283333,-1087.50,0
6.288889,-4912.50,0
6.294444,-4912.50,0
6.300000,5112.50,0
6.305556,-14087.50,0
6.311111,4687.50,0
6.316667,-1712.50,1
6.322222,4687.50,0
6.327778,14712.50,0
6.333333,5112.50,0
6.338889,-1875.00,0
6.344444,11512.50,0
6.350000,-2512.50,0
6.355556,5262.50,0
6.361111,-2000.00,0
6.366667,-14512.50,0
6.372222,-1287.50,0
6.377778,5112.50,0
6.383333,-4487.50,0
6.388889,-4925.00,0
6.394444,-4287.50,0
6.400000,5125.00,0
6.405556,5125.00,0
6.411111,5450.00,0
6.416667,-1712.50,1
6.422222,8312.50,0
6.427778,5112.50,0
6.433333,10462.50,0
6.438889,-1725.00,0
6.444444,-5125.00,0
6.450000,-2237.50,0
6.455556,5125.00,0
6.461111,-1912.50,0
6.466667,-1712.50,1
6.472222,-4075.00,0
6.477778,5112.50,0
6.483333,12337.50,0
6.488889,5450.00,0
6.494444,-1725.00,0
6.500000,5137.50,0
6.505556,8312.50,0
6.511111,7662.50,0
6.516667,-1712.50,1
6.522222,-22862.50,0
6.527778,-2062.50,0
6.533333,5125.00,0
6.538889,-1737.50,0
6.544444,-8112.50,0
6.550000,-1075.00,0
6.555556,5112.50,0
6.561111,13662.50,0
6.566667,5262.50,0
6.572222,-1737.50,0
6.577778,5337.50,0
6.583333,11712.50,0
6.588889,6075.00,0
6.594444,-1712.50,1
6.600000,14937.50,0
6.605556,-2062.50,0
6.611111,5137.50,0
6.616667,-1750.00,0
6.622222,23675.00,0
6.627778,-275.00,0
6.633333,5112.50,0
6.638889,-5125.00,0
6.644444,-8112.50,0
6.650000,-250.00,0
6.655556,5137.50,0
6.661111,5525.00,0
6.666667,5462.50,0
6.672222,-1712.50,1
6.677778,5325.00,0
6.683333,8312.50,0
6.688889,6862.50,0
6.694444,-1737.50,0
6.700000,-5337.50,0
6.705556,-2250.00,0
6.711111,5112.50,0
6.716667,-1925.00,0
6.722222,-1712.50,1
6.727778,-6862.50,0
6.733333,5137.50,0
6.738889,9137.50,0
6.744444,5450.00,0
6.750000,-1725.00,0
6.755556,5137.50,0
6.761111,8312.50,0
6.766667,7675.00,0
6.772222,-1712.50,1
6.777778,-12862.50,0
6.783333,-2062.50,0
6.788889,5125.00,0
6.794444,-1737.50,0
6.800000,-4912.50,0
6.805556,-1075.00,0
6.811111,5112.50,0
6.816667,13662.50,0
6.822222,5462.50,0
6.827778,-1725.00,0
6.833333,5137.50,0
6.838889,11712.50,0
6.844444,3875.00,0
6.850000,-1712.50,1
6.855556,15137.50,0
6.861111,-2062.50,0
6.866667,5137.50,0
6.872222,-1750.00,0
6.877778,-17925.00,0
6.883333,-662.50,0
6.888889,5112.50,0
6.894444,-5125.00,0
6.900000,-17712.50,0
6.905556,-262.50,0
6.911111,5137.50,0
6.916667,8525.00,0
6.922222,5662.50,0
6.927778,-1712.50,1
6.933333,5325.00,0
6.938889,5112.50,0
6.944444,7062.50,0
6.950000,-1737.50,0
6.955556,-2125.00,0
6.961111,-2262.50,0
6.966667,5112.50,0
6.972222,-1925.00,0
6.977778,-1712.50,1
6.983333,-6662.50,0
6.988889,5137.50,0
6.994444,9137.50,0
7.000000,5475.00,0
7.005556,-1725.00,0
7.011111,5125.00,0
7.016667,5112.50,0
7.022222,10875.00,0
7.027778,-1712.50,1
7.033333,-9662.50,0
7.038889,-2062.50,0
7.044444,5125.00,0
7.050000,-1737.50,0
7.055556,-4912.50,0
7.061111,-4275.00,0
7.066667,5112.50,0
7.072222,-11950.00,0
7.077778,5262.50,0
7.083333,-1725.00,0
7.088889,5337.50,0
7.094444,11512.50,0
7.100000,4275.00,0
7.105556,-1712.50,1
7.111111,15137.50,0
7.116667,-2062.50,0
7.122222,5137.50,0
7.127778,-1750.00,0
7.133333,-14725.00,0
7.138889,-675.00,0
7.144444,5112.50,0
7.150000,-8325.00,0
7.155556,14287.50,0
7.161111,-2450.00,0
7.166667,5137.50,0
7.172222,8525.00,0
7.177778,5662.50,0
7.183333,-1712.50,1
7.188889,8525.00,0
7.194444,5112.50,0
7.200000,6662.50,0
7.205556,-1737.50,0
7.211111,-2125.00,0
7.216667,-2062.50,0
7.222222,-23537.50,0
7.227778,17600.00,0
7.233333,-23362.50,0
7.238889,-25600.00,0
7.244444,5250.00,0
7.250000,-5725.00,0
7.255556,3600.00,0
7.261111,-6125.00,0
7.266667,3600.00,0
7.272222,-5925.00,0
7.277778,-18800.00,0
7.283333,-19162.50,0
7.288889,-21800.00,0
7.294444,-19162.50,0
7.300000,-21800.00,0
7.305556,-23562.50,0
7.311111,-25437.50,0
7.316667,-15575.00,0
7.322222,662.50,0
7.327778,-19162.50,0
7.333333,-24612.50,0
7.338889,-19137.50,0
7.344444,-21750.00,0
7.350000,-19162.50,0
7.355556,-14687.50,0
7.361111,-19125.00,0
7.366667,-21087.50,0
7.372222,-19125.00,0
7.377778,5112.50,0
7.383333,-1925.00,0
7.388889,-1712.50,1
7.394444,-10262.50,0
7.400000,5137.50,0
7.405556,8925.00,0
7.411111,5462.50,0
7.416667,-1712.50,1
7.422222,5325.00,0
7.427778,5112.50,0
7.433333,10462.50,0
7.438889,-1712.50,1
7.444444,-9050.00,0
7.450000,-2062.50,0
7.455556,5125.00,0
7.461111,-1937.50,0
7.466667,-1712.50,1
7.472222,-3875.00,0
7.477778,5112.50,0
7.483333,16862.50,0
7.488889,5262.50,0
7.494444,-1725.00,0
7.500000,5337.50,0
7.505556,11512.50,0
7.511111,4275.00,0
7.516667,-1712.50,1
7.522222,15137.50,0
7.527778,-1862.50,0
7.533333,5125.00,0
7.538889,-1937.50,0
7.544444,-11525.00,0
7.550000,-2662.50,0
7.555556,5112.50,0
7.561111,-5125.00,0
7.566667,11087.50,0
7.572222,-2650.00,0
7.577778,5137.50,0
7.583333,8525.00,0
7.588889,5662.50,0
7.594444,-1712.50,1
7.600000,5275.00,0
7.605556,8312.50,0
7.611111,7125.00,0
7.616667,-1775.00,0
7.622222,-1937.50,0
7.627778,-2237.50,0
7.633333,5112.50,0
7.638889,-1925.00,0
7.644444,-1712.50,1
7.650000,-7075.00,0
7.655556,5150.00,0
7.661111,11937.50,0
7.666667,5450.00,0
7.672222,-1725.00,0
7.677778,5337.50,0
7.683333,5112.50,0
7.688889,7475.00,0
7.694444,-1712.50,1
7.700000,-9050.00,0
7.705556,-1862.50,0
7.711111,5125.00,0
7.716667,-1937.50,0
7.722222,-1712.50,1
7.727778,-4287.50,0
7.733333,5112.50,0
7.738889,-21550.00,0
7.744444,5650.00,0
7.750000,-1725.00,0
7.755556,5225.00,0
7.761111,11725.00,0
7.766667,4087.50,0
7.772222,-1712.50,1
7.777778,15550.00,0
7.783333,-2050.00,0
7.788889,5125.00,0
7.794444,-1975.00,0
7.800000,10875.00,0
7.805556,-875.00,0
7.811111,5112.50,0
7.816667,-8325.00,0
7.822222,4287.50,0
7.827778,-1862.50,0
7.833333,5137.50,0
7.838889,11725.00,0
7.844444,5862.50,0
7.850000,-1712.50,1
7.855556,8525.00,0
7.861111,8312.50,0
7.866667,3662.50,0
7.872222,-1737.50,0
7.877778,-1925.00,0
7.883333,-2262.50,0
7.888889,5112.50,0
7.894444,-1925.00,0
7.900000,-1712.50,1
7.905556,-3662.50,0
7.911111,5137.50,0
7.916667,8937.50,0
7.922222,5450.00,0
7.927778,-1712.50,1
7.933333,5325.00,0
7.938889,5112.50,0
7.944444,10275.00,0
7.950000,-1725.00,0
7.955556,-8800.00,0
7.961111,-2062.50,0
7.966667,5125.00,0
7.972222,-1950.00,0
7.977778,-4912.50,0
7.983333,-4075.00,0
7.988889,5112.50,0
7.994444,-21950.00,0
8.000000,5462.50,0
8.005556,-1725.00,0
8.011111,5137.50,0
8.016667,8312.50,0
8.022222,7675.00,0
8.027778,-1712.50,1
8.033333,-1287.50,0
8.038889,-18712.50,0
8.044444,5112.50,0
8.050000,-5112.50,0
8.055556,-1662.50,0
8.061111,15087.50,0
8.066667,5112.50,0
8.072222,-15112.50,0
8.077778,-2487.50,0
8.083333,-4912.50,0
8.088889,8312.50,0
8.094444,5287.50,0
8.100000,-6887.50,0
8.105556,-1712.50,1
8.111111,11712.50,0
8.116667,5025.00,0
8.122222,9912.50,0
8.127778,-4912.50,0
8.133333,-1862.50,0
8.138889,10687.50,0
8.144444,5112.50,0
8.150000,-8312.50,0
8.155556,-1712.50,1
8.161111,-12512.50,0
8.166667,8287.50,0
8.172222,5337.50,0
8.177778,-4087.50,0
8.183333,-1725.00,0
8.188889,8512.50,0
8.194444,5112.50,0
8.200000,-18287.50,0
8.205556,-1712.50,1
8.211111,-5487.50,0
8.216667,4287.50,0
8.222222,5112.50,0
8.227778,-4912.50,0
8.233333,-1675.00,0
8.238889,18287.50,0
8.244444,5112.50,0
8.250000,12075.00,0
8.255556,-4287.50,0
8.261111,-1712.50,1
8.266667,8512.50,0
8.272222,5037.50,0
8.277778,-8687.50,0
8.283333,-1712.50,1
8.288889,-6887.50,0
8.294444,7487.50,0
8.300000,5112.50,0
8.305556,-4912.50,0
8.311111,-1675.00,0
8.316667,11687.50,0
8.322222,5112.50,0
8.327778,-14912.50,0
8.333333,-887.50,0
8.338889,-4912.50,0
8.344444,8312.50,0
8.350000,5287.50,0
8.355556,-3487.50,0
8.361111,-1712.50,1
8.366667,11712.50,0
8.372222,5037.50,0
8.377778,12312.50,0
8.383333,-4912.50,0
8.388889,-1862.50,0
8.394444,7487.50,0
8.400000,5112.50,0
8.405556,-8112.50,0
8.411111,-1725.00,0
8.416667,21487.50,0
8.422222,8312.50,0
8.427778,5212.50,0
8.433333,-4087.50,0
8.438889,-1712.50,1
8.444444,8512.50,0
8.450000,5137.50,0
8.455556,-18687.50,0
8.461111,-4912.50,0
8.466667,-2275.00,0
8.472222,7487.50,0
8.477778,5112.50,0
8.483333,-11512.50,0
8.488889,-1762.50,0
8.494444,11887.50,0
8.500000,5112.50,0
8.505556,8675.00,0
8.511111,-7487.50,0
8.516667,-1712.50,1
8.522222,8512.50,0
8.527778,5075.00,0
8.533333,-8287.50,0
8.538889,-1712.50,1
8.544444,-8275.00,0
8.550000,14287.50,0
8.555556,5112.50,0
8.561111,-1712.50,1
8.566667,-1737.50,0
8.572222,8487.50,0
8.577778,5112.50,0
8.583333,8687.50,0
8.588889,-4487.50,0
8.594444,-4912.50,0
8.600000,8312.50,0
8.605556,5237.50,0
8.611111,-1887.50,0
8.616667,-1712.50,1
8.622222,-7287.50,0
8.627778,5162.50,0
8.633333,18712.50,0
8.638889,-4912.50,0
8.644444,-1662.50,0
8.650000,13687.50,0
8.655556,5112.50,0
8.661111,-5112.50,0
8.666667,-1725.00,0
8.672222,-1712.50,1
8.677778,8312.50,0
8.683333,5662.50,0
8.688889,-487.50,0
8.694444,-1712.50,1
8.700000,-13487.50,0
8.705556,5137.50,0
8.711111,12112.50,0
8.716667,-11312.50,0
8.722222,-3862.50,0
8.727778,5687.50,0
8.733333,5112.50,0
8.738889,-14712.50,0
8.744444,-1625.00,0
8.750000,8487.50,0
8.755556,5112.50,0
8.761111,8662.50,0
8.766667,-4287.50,0
8.772222,-1712.50,1
8.777778,5112.50,0
8.783333,5050.00,0
8.788889,-5475.00,0
8.794444,-1712.50,1
8.800000,-5687.50,0
8.805556,7487.50,0
8.811111,5112.50,0
8.816667,-5112.50,0
8.822222,-1687.50,0
8.827778,11887.50,0
8.833333,5112.50,0
8.838889,13487.50,0
8.844444,-4287.50,0
8.850000,-1712.50,1
8.855556,8312.50,0
8.861111,5262.50,0
8.866667,-8687.50,0
8.872222,-1712.50,1
8.877778,15112.50,0
8.883333,5075.00,0
8.888889,12112.50,0
8.894444,-4912.50,0
8.900000,-1875.00,0
8.905556,7287.50,0
8.911111,5112.50,0
8.916667,-8312.50,0
8.922222,-1737.50,0
8.927778,-8912.50,0
8.933333,8312.50,0
8.938889,5250.00,0
8.944444,-3887.50,0
8.950000,-1712.50,1
8.955556,11712.50,0
8.961111,5137.50,0
8.966667,16912.50,0
8.972222,-4912.50,0
8.977778,-2062.50,0
8.983333,7487.50,0
8.988889,5112.50,0
8.994444,-8312.50,0
9.000000,-1737.50,0
9.005556,15887.50,0
9.011111,5112.50,0
9.016667,9075.00,0
9.022222,-4087.50,0
9.027778,-1712.50,1
9.033333,11712.50,0
9.038889,5000.00,0
9.044444,-8887.50,0
9.050000,-1712.50,1
9.055556,-9875.00,0
9.061111,7487.50,0
9.066667,-23537.50,0
9.072222,17600.00,0
9.077778,-23362.50,0
9.083333,-25600.00,0
9.088889,3200.00,0
9.094444,-5925.00,0
9.100000,-15600.00,0
9.105556,-19162.50,0
9.111111,-21800.00,0
9.116667,-19162.50,0
9.122222,-21800.00,0
9.127778,-23562.50,0
9.133333,-25437.50,0
9.138889,-15575.00,0
9.144444,662.50,0
9.150000,-19162.50,0
9.155556,-24612.50,0
9.161111,-19137.50,0
9.166667,-21750.00,0
9.172222,-19162.50,0
9.177778,-14687.50,0
9.183333,-19125.00,0
9.188889,-21087.50,0
9.194444,-19125.00,0
9.200000,-17887.50,0
9.205556,-19125.00,0
9.211111,-24950.00,0
9.216667,-15975.00,0
9.222222,5112.50,0
9.227778,-4912.50,0
9.233333,-1675.00,0
9.238889,11887.50,0
9.244444,5112.50,0
9.250000,16287.50,0
9.255556,-4087.50,0
9.261111,-1712.50,1
9.266667,8312.50,0
9.272222,5275.00,0
9.277778,-8687.50,0
9.283333,-1712.50,1
9.288889,24712.50,0
9.294444,5075.00,0
9.300000,8712.50,0
9.305556,-4912.50,0
9.311111,-1675.00,0
9.316667,12287.50,0
9.322222,5112.50,0
9.327778,-14712.50,0
9.333333,-1750.00,0
9.338889,-6712.50,0
9.344444,8312.50,0
9.350000,5250.00,0
9.355556,-4087.50,0
9.361111,-1712.50,1
9.366667,14912.50,0
9.372222,5137.50,0
9.377778,13712.50,0
9.383333,-4912.50,0
9.388889,-2050.00,0
9.394444,7487.50,0
9.400000,5112.50,0
9.405556,-8312.50,0
9.411111,-1750.00,0
9.416667,15487.50,0
9.422222,5112.50,0
9.427778,8875.00,0
9.433333,-4087.50,0
9.438889,-1712.50,1
9.444444,11712.50,0
9.450000,5187.50,0
9.455556,-11887.50,0
9.461111,-1712.50,1
9.466667,-6887.50,0
9.472222,7687.50,0
9.477778,5112.50,0
9.483333,-5112.50,0
9.488889,-1637.50,0
9.494444,15287.50,0
9.500000,5112.50,0
9.505556,13487.50,0
9.511111,-4287.50,0
9.516667,-1712.50,1
9.522222,8512.50,0
9.527778,5075.00,0
9.533333,-8687.50,0
9.538889,-1712.50,1
9.544444,18312.50,0
9.550000,5287.50,0
9.555556,8512.50,0
9.561111,-4912.50,0
9.566667,-1887.50,0
9.572222,10487.50,0
9.577778,5112.50,0
9.583333,-11512.50,0
9.588889,-1762.50,0
9.594444,-12312.50,0
9.600000,8312.50,0
9.605556,5262.50,0
9.611111,-3887.50,0
9.616667,-1712.50,1
9.622222,11712.50,0
9.627778,5137.50,0
9.633333,16912.50,0
9.638889,-4912.50,0
9.644444,-2062.50,0
9.650000,7487.50,0
9.655556,5112.50,0
9.661111,-8312.50,0
9.666667,-1750.00,0
9.672222,18487.50,0
9.677778,5112.50,0
9.683333,8875.00,0
9.688889,-4087.50,0
9.694444,-1712.50,1
9.700000,11512.50,0
9.705556,5175.00,0
9.711111,-8287.50,0
9.716667,-1712.50,1
9.722222,-6687.50,0
9.727778,7687.50,0
9.733333,5112.50,0
9.738889,-5112.50,0
9.744444,-1637.50,0
9.750000,11887.50,0
9.755556,5112.50,0
9.761111,16887.50,0
9.766667,-4287.50,0
9.772222,-1712.50,1
9.777778,8312.50,0
9.783333,5275.00,0
9.788889,-8687.50,0
9.794444,-1712.50,1
9.800000,21512.50,0
9.805556,5287.50,0
9.811111,8512.50,0
9.816667,-4912.50,0
9.822222,-1687.50,0
9.827778,12087.50,0
9.833333,5112.50,0
9.838889,-8512.50,0
9.844444,-1787.50,0
9.850000,-8712.50,0
9.855556,8312.50,0
9.861111,5262.50,0
9.866667,-3887.50,0
9.872222,-1712.50,1
9.877778,11912.50,0
9.883333,5137.50,0
9.888889,15712.50,0
9.894444,-4912.50,0
9.900000,-2062.50,0
9.905556,7487.50,0
9.911111,5112.50,0
9.916667,-8312.50,0
9.922222,-1737.50,0
9.927778,15287.50,0
9.933333,5112.50,0
9.938889,8875.00,0
9.944444,-4087.50,0
9.950000,-1712.50,1
9.955556,11712.50,0
9.961111,5037.50,0
9.966667,-8887.50,0
9.972222,-1712.50,1
9.977778,-9087.50,0
9.983333,7487.50,0
9.988889,5112.50,0
9.994444,-4912.50,0
10.000000,-1662.50,0
10.005556,11687.50,0
10.011111,5112.50,0
10.016667,13687.50,0
10.022222,-4287.50,0
10.027778,-1712.50,1
10.033333,8512.50,0
10.038889,5075.00,0
10.044444,-8487.50,0
10.050000,-1712.50,1
10.055556,15112.50,0
10.061111,5887.50,0
10.066667,11512.50,0
10.072222,-4912.50,0
10.077778,-1687.50,0
10.083333,12287.50,0
10.088889,5112.50,0
10.094444,-14712.50,0
10.100000,-1775.00,0
10.105556,-6712.50,0
10.111111,8312.50,0
10.116667,5262.50,0
10.122222,-3887.50,0
10.127778,-1712.50,1
10.133333,11712.50,0
10.138889,5137.50,0
10.144444,13312.50,0
10.150000,-4912.50,0
10.155556,-2062.50,0
10.161111,7487.50,0
10.166667,5112.50,0
10.172222,-8312.50,0
10.177778,-1737.50,0
10.183333,18687.50,0
10.188889,5112.50,0
10.194444,8875.00,0
10.200000,-4087.50,0
10.205556,-1712.50,1
10.211111,11712.50,0
10.216667,5162.50,0
10.222222,-11887.50,0
10.227778,-1712.50,1
10.233333,-9475.00,0
10.238889,7487.50,0
10.244444,5112.50,0
10.250000,-4912.50,0
10.255556,-1662.50,0
10.261111,11887.50,0
10.266667,5112.50,0
10.272222,15487.50,0
10.277778,-4087.50,0
10.283333,-1712.50,1
10.288889,8312.50,0
10.294444,5262.50,0
10.300000,-9087.50,0
10.305556,-1712.50,1
10.311111,18312.50,0
10.316667,3887.50,0
10.322222,8312.50,0
10.327778,-4912.50,0
10.333333,-1875.00,0
10.338889,10087.50,0
10.344444,5112.50,0
10.350000,-8312.50,0
10.355556,-1662.50,0
10.361111,-9112.50,0
10.366667,8312.50,0
10.372222,5262.50,0
10.377778,-3887.50,0
10.383333,-1712.50,1
10.388889,11712.50,0
10.394444,5137.50,0
10.400000,15712.50,0
10.405556,-4912.50,0
10.411111,-1862.50,0
10.416667,7287.50,0
10.422222,5112.50,0
10.427778,-8312.50,0
10.433333,-1737.50,0
10.438889,21687.50,0
10.444444,8312.50,0
10.450000,5475.00,0
10.455556,-4087.50,0
10.461111,-1712.50,1
10.466667,11712.50,0
10.472222,5150.00,0
10.477778,-11687.50,0
10.483333,-1712.50,1
10.488889,-6675.00,0
10.494444,7487.50,0
10.500000,5112.50,0
10.505556,-4912.50,0
10.511111,-1650.00,0
10.516667,11687.50,0
10.522222,5112.50,0
10.527778,13687.50,0
10.533333,-4087.50,0
10.538889,-1712.50,1
10.544444,8312.50,0
10.550000,5050.00,0
10.555556,-8287.50,0
10.561111,-1712.50,1
10.566667,-16887.50,0
10.572222,7687.50,0
10.577778,5112.50,0
10.583333,-4912.50,0
10.588889,-2075.00,0
10.594444,12287.50,0
10.600000,5112.50,0
10.605556,-11512.50,0
10.611111,-1662.50,0
10.616667,-6512.50,0
10.622222,8312.50,0
10.627778,5262.50,0
10.633333,-3887.50,0
10.638889,-1712.50,1
10.644444,11712.50,0
10.650000,5137.50,0
10.655556,13312.50,0
10.661111,-4912.50,0
10.666667,-1850.00,0
10.672222,6887.50,0
10.677778,5112.50,0
10.683333,-8312.50,0
10.688889,-1737.50,0
10.694444,-22912.50,0
10.700000,8312.50,0
10.705556,5462.50,0
10.711111,-3887.50,0
10.716667,-1712.50,1
10.722222,8312.50,0
10.727778,5162.50,0
10.733333,-8287.50,0
10.738889,-1712.50,1
10.744444,-8875.00,0
10.750000,7487.50,0
10.755556,5112.50,0
10.761111,-4912.50,0
10.766667,-1650.00,0
10.772222,14887.50,0
10.777778,5112.50,0
10.783333,10287.50,0
10.788889,-4087.50,0
10.794444,-1712.50,1
10.800000,8312.50,0
10.805556,5050.00,0
10.811111,-8287.50,0
10.816667,-1712.50,1
10.822222,-13687.50,0
10.827778,7687.50,0
10.833333,5112.50,0
10.838889,-4912.50,0
10.844444,-1875.00,0
10.850000,11887.50,0
10.855556,5112.50,0
10.861111,-11512.50,0
10.866667,-1675.00,0
10.872222,-6312.50,0
10.877778,8312.50,0
10.883333,5275.00,0
10.888889,-7287.50,0
10.894444,-1712.50,1
10.900000,11712.50,0
10.905556,5137.50,0
10.911111,-23537.50,0
10.916667,17600.00,0
10.922222,-23362.50,0
10.927778,-25600.00,0
10.933333,-22400.00,0
10.938889,-19162.50,0
10.944444,-21800.00,0
10.950000,-23562.50,0
10.955556,-25437.50,0
10.961111,-15575.00,0
10.966667,662.50,0
10.972222,-19162.50,0
10.977778,-24612.50,0
10.983333,-19137.50,0
10.988889,-21750.00,0
10.994444,-19162.50,0
11.000000,-14687.50,0
11.005556,-19125.00,0
11.011111,-21087.50,0
11.016667,-19125.00,0
11.022222,-17887.50,0
11.027778,-19125.00,0
11.033333,-24937.50,0
11.038889,-15975.00,0
11.044444,-24987.50,0
11.050000,-15975.00,0
11.055556,7012.50,0
11.061111,-23000.00,0
11.066667,13512.50,0
11.072222,-4912.50,0
11.077778,-1850.00,0
11.083333,7087.50,0
11.088889,5112.50,0
11.094444,-8312.50,0
11.100000,-1737.50,0
11.105556,-16712.50,0
11.111111,8312.50,0
11.116667,5662.50,0
11.122222,-4087.50,0
11.127778,-1712.50,1
11.133333,11712.50,0
11.138889,5150.00,0
11.144444,-11887.50,0
11.150000,-1712.50,1
11.155556,-5875.00,0
11.161111,7487.50,0
11.166667,5112.50,0
11.172222,-8112.50,0
11.177778,-1625.00,0
11.183333,-5075.00,0
11.188889,5112.50,0
11.194444,1700.00,0
11.200000,14750.00,0
11.205556,1700.00,0
11.211111,-16837.50,0
11.216667,1700.00,0
11.222222,11950.00,0
11.227778,1700.00,0
11.233333,-5137.50,0
11.238889,1700.00,0
11.244444,5125.00,0
11.250000,1700.00,0
11.255556,-1712.50,1
11.261111,1700.00,0
11.266667,5112.50,0
11.272222,-1712.50,1
11.277778,-1737.50,0
11.283333,1700.00,0
11.288889,5112.50,0
11.294444,1700.00,0
11.300000,11825.00,0
11.305556,1700.00,0
11.311111,-8962.50,0
11.316667,1700.00,0
11.322222,5337.50,0
11.327778,1700.00,0
11.333333,-1725.00,0
11.338889,1700.00,0
11.344444,5112.50,0
11.350000,1700.00,0
11.355556,-1712.50,1
11.361111,1700.00,0
11.366667,11737.50,0
11.372222,1700.00,0
11.377778,15387.50,0
11.383333,1700.00,0
11.388889,-11987.50,0
11.394444,1700.00,0
11.400000,8762.50,0
11.405556,1700.00,0
11.411111,-1725.00,0
11.416667,1700.00,0
11.422222,5112.50,0
11.427778,1700.00,0
11.433333,-1712.50,1
11.438889,-4925.00,0
11.444444,5112.50,0
11.450000,1700.00,0
11.455556,18025.00,0
11.461111,1700.00,0
11.466667,-19775.00,0
11.472222,1700.00,0
11.477778,11950.00,0
11.483333,1700.00,0
11.488889,-5137.50,0
11.494444,1700.00,0
11.500000,5125.00,0
11.505556,1700.00,0
11.511111,-1712.50,1
11.516667,-4937.50,0
11.522222,5112.50,0
11.527778,-4925.00,0
11.533333,-4150.00,0
11.538889,1700.00,0
11.544444,8325.00,0
11.550000,1700.00,0
11.555556,12362.50,0
11.561111,1700.00,0
11.566667,-8562.50,0
11.572222,1700.00,0
11.577778,5337.50,0
11.583333,1700.00,0
11.588889,-1725.00,0
11.594444,1700.00,0
11.600000,5112.50,0
11.605556,-1712.50,1
11.611111,-1712.50,1
11.616667,1700.00,0
11.622222,5112.50,0
11.627778,1700.00,0
11.633333,11737.50,0
11.638889,1700.00,0
11.644444,-10225.00,0
11.650000,1700.00,0
11.655556,8750.00,0
11.661111,1700.00,0
11.666667,-1725.00,0
11.672222,1700.00,0
11.677778,5112.50,0
11.683333,1700.00,0
11.688889,-1712.50,1
11.694444,-4925.00,0
11.700000,5112.50,0
11.705556,1700.00,0
11.711111,11637.50,0
11.716667,1700.00,0
11.722222,-13375.00,0
11.727778,1700.00,0
11.733333,12162.50,0
11.738889,-1712.50,1
11.744444,18325.00,0
11.750000,-11325.00,0
11.755556,5112.50,0
11.761111,-1712.50,1
11.766667,-2362.50,0
11.772222,10625.00,0
11.777778,5112.50,0
11.783333,20475.00,0
11.788889,-7450.00,0
11.794444,-1712.50,1
11.800000,5112.50,0
11.805556,5550.00,0
11.811111,-14050.00,0
11.816667,-1712.50,1
11.822222,11712.50,0
11.827778,5125.00,0
11.833333,10025.00,0
11.838889,-1712.50,1
11.844444,-1812.50,0
11.850000,20662.50,0
11.855556,5112.50,0
11.861111,-8325.00,0
11.866667,-1712.50,1
11.872222,-12037.50,0
11.877778,5112.50,0
11.883333,8637.50,0
11.888889,14737.50,0
11.894444,-1712.50,1
11.900000,8312.50,0
11.905556,5112.50,0
11.911111,20275.00,0
11.916667,-1712.50,1
11.922222,-5250.00,0
11.927778,-14525.00,0
11.933333,5112.50,0
11.938889,-4912.50,0
11.944444,-1725.00,0
11.950000,15350.00,0
11.955556,5112.50,0
11.961111,10062.50,0
11.966667,14725.00,0
11.972222,-1712.50,1
11.977778,8312.50,0
11.983333,5337.50,0
11.988889,-13775.00,0
11.994444,-1712.50,1
12.000000,-10275.00,0
12.005556,-8125.00,0
12.011111,5112.50,0
12.016667,-1712.50,1
12.022222,-2550.00,0
12.027778,7425.00,0
12.033333,5112.50,0
12.038889,-14725.00,0
12.044444,-17262.50,0
12.050000,-1712.50,1
12.055556,5112.50,0
12.061111,3762.50,0
12.066667,-7450.00,0
12.072222,-1712.50,1
12.077778,14912.50,0
12.083333,5125.00,0
12.088889,12025.00,0
12.094444,-1712.50,1
12.100000,-1975.00,0
12.105556,14262.50,0
12.111111,5112.50,0
12.116667,-8325.00,0
12.122222,-1712.50,1
12.127778,-11837.50,0
12.133333,5112.50,0
12.138889,5437.50,0
12.144444,-10862.50,0
12.150000,-1712.50,1
12.155556,8312.50,0
12.161111,5112.50,0
12.166667,-18125.00,0
12.172222,-1712.50,1
12.177778,-5450.00,0
12.183333,-11325.00,0
12.188889,5112.50,0
12.194444,-4912.50,0
12.200000,-1725.00,0
12.205556,21537.50,0
12.211111,5112.50,0
12.216667,12262.50,0
12.222222,14725.00,0
12.227778,-1712.50,1
12.233333,8312.50,0
12.238889,5325.00,0
12.244444,-10562.50,0
12.250000,-1712.50,1
12.255556,-10462.50,0
12.261111,-8137.50,0
12.266667,5112.50,0
12.272222,-4912.50,0
12.277778,-2337.50,0
12.283333,10837.50,0
12.288889,5112.50,0
12.294444,-17925.00,0
12.300000,11525.00,0
12.305556,-1712.50,1
12.311111,5112.50,0
12.316667,4050.00,0
12.322222,-4237.50,0
12.327778,-1712.50,1
12.333333,11725.00,0
12.338889,5312.50,0
12.344444,8650.00,0
12.350000,-1712.50,1
12.355556,-1975.00,0
12.361111,-17737.50,0
12.366667,5112.50,0
12.372222,-8325.00,0
12.377778,-1712.50,1
12.383333,-9437.50,0
12.388889,5112.50,0
12.394444,8425.00,0
12.400000,17937.50,0
12.405556,-1712.50,1
12.411111,8312.50,0
12.416667,5112.50,0
12.422222,-15337.50,0
12.427778,-1712.50,1
12.433333,-5650.00,0
12.438889,-8137.50,0
12.444444,5112.50,0
12.450000,-4912.50,0
12.455556,-1925.00,0
12.461111,19150.00,0
12.466667,5112.50,0
12.472222,10462.50,0
12.477778,11537.50,0
12.483333,-1712.50,1
12.488889,8312.50,0
12.494444,5325.00,0
12.500000,16262.50,0
12.505556,-1712.50,1
12.511111,-13262.50,0
12.516667,-11325.00,0
12.522222,5112.50,0
12.527778,-4912.50,0
12.533333,-1950.00,0
12.538889,14037.50,0
12.544444,5112.50,0
12.550000,17075.00,0
12.555556,11525.00,0
12.561111,-1712.50,1
12.566667,8312.50,0
12.572222,3637.50,0
12.577778,-7450.00,0
12.583333,-1712.50,1
12.588889,14725.00,0
12.594444,5312.50,0
12.600000,11825.00,0
12.605556,-1712.50,1
12.611111,-2025.00,0
12.616667,-11337.50,0
12.622222,5112.50,0
12.627778,-5125.00,0
12.633333,-1712.50,1
12.638889,-7062.50,0
12.644444,5112.50,0
12.650000,5362.50,0
12.655556,-7662.50,0
12.661111,-1712.50,1
12.666667,8312.50,0
12.672222,5112.50,0
12.677778,13675.00,0
12.683333,-1712.50,1
12.688889,-5037.50,0
12.694444,-17725.00,0
12.700000,5112.50,0
12.705556,-4912.50,0
12.711111,-1725.00,0
12.716667,12350.00,0
12.722222,5112.50,0
12.727778,7062.50,0
12.733333,14737.50,0
12.738889,-1712.50,1
12.744444,8312.50,0
12.750000,5325.00,0
12.755556,-23537.50,0
12.761111,17600.00,0
12.766667,-23362.50,0
12.772222,-25600.00,0
12.777778,-25600.00,0
12.783333,-15575.00,0
12.788889,662.50,0
12.794444,-19162.50,0
12.800000,-24612.50,0
12.805556,-19137.50,0
12.811111,-21750.00,0
12.816667,-19162.50,0
12.822222,-14687.50,0
12.827778,-19125.00,0
12.833333,-21087.50,0
12.838889,-19125.00,0
12.844444,-17887.50,0
12.850000,-19125.00,0
12.855556,-24925.00,0
12.861111,-15975.00,0
12.866667,-24987.50,0
12.872222,-15975.00,0
12.877778,7012.50,0
12.883333,-23000.00,0
12.888889,-18800.00,0
12.894444,-14962.50,0
12.900000,-24900.00,0
12.905556,-9775.00,0
12.911111,-18937.50,0
12.916667,-1712.50,1
12.922222,-13062.50,0
12.927778,-8125.00,0
12.933333,5112.50,0
12.938889,-4912.50,0
12.944444,-2162.50,0
12.950000,20212.50,0
12.955556,5112.50,0
12.961111,-14925.00,0
12.966667,14725.00,0
12.972222,-1712.50,1
12.977778,8312.50,0
12.983333,5762.50,0
12.988889,-7437.50,0
12.994444,-1712.50,1
13.000000,14925.00,0
13.005556,5325.00,0
13.011111,8537.50,0
13.016667,-1712.50,1
13.022222,-2037.50,0
13.027778,-11350.00,0
13.033333,5112.50,0
13.038889,-8312.50,0
13.044444,-1712.50,1
13.050000,-8662.50,0
13.055556,5112.50,0
13.061111,5562.50,0
13.066667,24337.50,0
13.072222,-1712.50,1
13.077778,8525.00,0
13.083333,5112.50,0
13.088889,16250.00,0
13.094444,-1712.50,1
13.100000,-5250.00,0
13.105556,-11325.00,0
13.111111,5112.50,0
13.116667,-4925.00,0
13.122222,-1712.50,1
13.127778,21537.50,0
13.133333,5112.50,0
13.138889,9062.50,0
13.144444,17925.00,0
13.150000,-1712.50,1
13.155556,8312.50,0
13.161111,5325.00,0
13.166667,-10537.50,0
13.172222,-1712.50,1
13.177778,-7062.50,0
13.183333,-11337.50,0
13.188889,5112.50,0
13.194444,-1712.50,1
13.200000,-2137.50,0
13.205556,7425.00,0
13.211111,5112.50,0
13.216667,23475.00,0
13.222222,11525.00,0
13.227778,-1712.50,1
13.233333,5112.50,0
13.238889,3775.00,0
13.244444,-4237.50,0
13.250000,-1712.50,1
13.255556,18125.00,0
13.261111,6337.50,0
13.266667,8325.00,0
13.272222,-1712.50,1
13.277778,-1975.00,0
13.283333,-14537.50,0
13.288889,5112.50,0
13.294444,-8325.00,0
13.300000,-1712.50,1
13.305556,-8637.50,0
13.311111,5112.50,0
13.316667,5375.00,0
13.322222,-14062.50,0
13.327778,-1712.50,1
13.333333,11712.50,0
13.338889,5112.50,0
13.344444,15675.00,0
13.350000,-1712.50,1
13.355556,-5237.50,0
13.361111,-11337.50,0
13.366667,5112.50,0
13.372222,-4912.50,0
13.377778,-1712.50,1
13.383333,21525.00,0
13.388889,5112.50,0
13.394444,8850.00,0
13.400000,17937.50,0
13.405556,-1712.50,1
13.411111,8312.50,0
13.416667,5325.00,0
13.422222,-13350.00,0
13.427778,-1712.50,1
13.433333,-7062.50,0
13.438889,-8137.50,0
13.444444,5112.50,0
13.450000,-4912.50,0
13.455556,-1937.50,0
13.461111,13625.00,0
13.466667,5112.50,0
13.472222,17075.00,0
13.477778,11525.00,0
13.483333,-1712.50,1
13.488889,5112.50,0
13.494444,5975.00,0
13.500000,-4237.50,0
13.505556,-1712.50,1
13.511111,18125.00,0
13.516667,7562.50,0
13.522222,5125.00,0
13.527778,-1712.50,1
13.533333,-1837.50,0
13.538889,-11550.00,0
13.544444,5112.50,0
13.550000,-8325.00,0
13.555556,-1712.50,1
13.561111,-8437.50,0
13.566667,5112.50,0
13.572222,5225.00,0
13.577778,-14062.50,0
13.583333,-1712.50,1
13.588889,11725.00,0
13.594444,5112.50,0
13.600000,13250.00,0
13.605556,-1712.50,1
13.611111,-5250.00,0
13.616667,-14537.50,0
13.622222,5112.50,0
13.627778,-4912.50,0
13.633333,-1712.50,1
13.638889,15337.50,0
13.644444,5112.50,0
13.650000,9037.50,0
13.655556,17937.50,0
13.661111,-1712.50,1
13.666667,8312.50,0
13.672222,5325.00,0
13.677778,-10362.50,0
13.683333,-1712.50,1
13.688889,-7062.50,0
13.694444,-8137.50,0
13.700000,5112.50,0
13.705556,-4912.50,0
13.711111,-2137.50,0
13.716667,20225.00,0
13.722222,5112.50,0
13.727778,17075.00,0
13.733333,11525.00,0
13.738889,-1712.50,1
13.744444,8312.50,0
13.750000,5750.00,0
13.755556,-10625.00,0
13.761111,-1712.50,1
13.766667,14925.00,0
13.772222,10837.50,0
13.777778,5125.00,0
13.783333,-1712.50,1
13.788889,-2050.00,0
13.794444,17250.00,0
13.800000,5112.50,0
13.805556,-8125.00,0
13.811111,-1712.50,1
13.816667,-9037.50,0
13.822222,5112.50,0
13.827778,5212.50,0
13.833333,-17262.50,0
13.838889,-1712.50,1
13.844444,11712.50,0
13.850000,5112.50,0
13.855556,15275.00,0
13.861111,-1712.50,1
13.866667,-5237.50,0
13.872222,-11337.50,0
13.877778,5112.50,0
13.883333,-4912.50,0
13.888889,-1712.50,1
13.894444,-16875.00,0
13.900000,5112.50,0
13.905556,8637.50,0
13.911111,21125.00,0
13.916667,-1712.50,1
13.922222,8312.50,0
13.927778,5125.00,0
13.933333,-14937.50,0
13.938889,-1712.50,1
13.944444,-12662.50,0
13.950000,-11325.00,0
13.955556,5112.50,0
13.961111,-4912.50,0
13.966667,-1925.00,0
13.972222,14162.50,0
13.977778,5112.50,0
13.983333,13662.50,0
13.988889,11537.50,0
13.994444,-1712.50,1
14.000000,8312.50,0
14.005556,5750.00,0
14.011111,-7437.50,0
14.016667,-1712.50,1
14.022222,18125.00,0
14.027778,-11337.50,0
14.033333,5112.50,0
14.038889,-1712.50,1
14.044444,-425.00,0
14.050000,10850.00,0
14.055556,5112.50,0
14.061111,-11525.00,0
14.066667,-1912.50,0
14.072222,-8450.00,0
14.077778,5112.50,0
14.083333,5362.50,0
14.088889,-10862.50,0
14.094444,-1712.50,1
14.100000,11512.50,0
14.105556,5112.50,0
14.111111,21862.50,0
14.116667,-1712.50,1
14.122222,-2250.00,0
14.127778,17462.50,0
14.133333,5112.50,0
14.138889,-8112.50,0
14.144444,-1712.50,1
14.150000,16737.50,0
14.155556,5112.50,0
14.161111,4062.50,0
14.166667,17937.50,0
14.172222,-1712.50,1
14.177778,5312.50,0
14.183333,5325.00,0
14.188889,4687.50,0
14.194444,-1712.50,1
14.200000,7450.00,0
14.205556,-1850.00,0
14.211111,5125.00,0
14.216667,-1937.50,0
14.222222,-4912.50,0
14.227778,-1075.00,0
14.233333,5112.50,0
14.238889,-15750.00,0
14.244444,5262.50,0
14.250000,-1725.00,0
14.255556,5125.00,0
14.261111,11512.50,0
14.266667,7475.00,0
14.272222,-1712.50,1
14.277778,11937.50,0
14.283333,-2075.00,0
14.288889,5137.50,0
14.294444,-1950.00,0
14.300000,-8325.00,0
14.305556,-875.00,0
14.311111,5112.50,0
14.316667,-5737.50,0
14.322222,-14512.50,0
14.327778,-2237.50,0
14.333333,5137.50,0
14.338889,5525.00,0
14.344444,6075.00,0
14.350000,-1712.50,1
14.355556,5525.00,0
14.361111,5112.50,0
14.366667,7262.50,0
14.372222,-1737.50,0
14.377778,-5125.00,0
14.383333,-2062.50,0
14.388889,5112.50,0
14.394444,-1712.50,1
14.400000,-1712.50,1
14.405556,-10275.00,0
14.411111,5150.00,0
14.416667,9537.50,0
14.422222,6062.50,0
14.427778,-1712.50,1
14.433333,5325.00,0
14.438889,5112.50,0
14.444444,10275.00,0
14.450000,-1712.50,1
14.455556,-3875.00,0
14.461111,-2262.50,0
14.466667,5125.00,0
14.472222,-1937.50,0
14.477778,-1712.50,1
14.483333,-4275.00,0
14.488889,5112.50,0
14.494444,-16162.50,0
14.500000,5250.00,0
14.505556,-1725.00,0
14.511111,5125.00,0
14.516667,17912.50,0
14.522222,7075.00,0
14.527778,-1712.50,1
14.533333,11725.00,0
14.538889,-1862.50,0
14.544444,5137.50,0
14.550000,-1737.50,0
14.555556,17487.50,0
14.561111,-675.00,0
14.566667,5112.50,0
14.572222,-8325.00,0
14.577778,11087.50,0
14.583333,-2262.50,0
14.588889,5137.50,0
14.594444,8525.00,0
14.600000,-23537.50,0
14.605556,17600.00,0
14.611111,-23362.50,0
14.616667,-25600.00,0
14.622222,-25600.00,0
14.627778,-19137.50,0
14.633333,-21750.00,0
14.638889,-19162.50,0
14.644444,-14687.50,0
14.650000,-19125.00,0
14.655556,-21087.50,0
14.661111,-19125.00,0
14.666667,-17887.50,0
14.672222,-19125.00,0
14.677778,-24912.50,0
14.683333,-15975.00,0
14.688889,-24987.50,0
14.694444,-15975.00,0
14.700000,7000.00,0
14.705556,-23000.00,0
14.711111,22800.00,0
14.716667,-12150.00,0
14.722222,-24575.00,0
14.727778,-19175.00,0
14.733333,-15125.00,0
14.738889,-19150.00,0
14.744444,-25000.00,0
14.750000,-19162.50,0
14.755556,5862.50,0
14.761111,-1712.50,1
14.766667,5525.00,0
14.772222,5112.50,0
14.777778,6662.50,0
14.783333,-1725.00,0
14.788889,-5125.00,0
14.794444,-2262.50,0
14.800000,5112.50,0
14.805556,-1925.00,0
14.811111,-1712.50,1
14.816667,-8862.50,0
14.822222,5137.50,0
14.827778,8937.50,0
14.833333,5462.50,0
14.838889,-1725.00,0
14.844444,5125.00,0
14.850000,8312.50,0
14.855556,10675.00,0
14.861111,-1712.50,1
14.866667,-9050.00,0
14.872222,-2275.00,0
14.877778,5125.00,0
14.883333,-1937.50,0
14.888889,-1712.50,1
14.894444,-4075.00,0
14.900000,5112.50,0
14.905556,16462.50,0
14.911111,5462.50,0
14.916667,-1725.00,0
14.922222,5137.50,0
14.927778,8312.50,0
14.933333,4475.00,0
14.938889,-1712.50,1
14.944444,18737.50,0
14.950000,-2062.50,0
14.955556,5125.00,0
14.961111,-1737.50,0
14.966667,-14712.50,0
14.972222,-475.00,0
14.977778,5112.50,0
14.983333,-8325.00,0
14.988889,14287.50,0
14.994444,-2262.50,0
15.000000,5137.50,0
15.005556,8525.00,0
15.011111,5662.50,0
15.016667,-1712.50,1
15.022222,5325.00,0
15.027778,8312.50,0
15.033333,9062.50,0
15.038889,-1737.50,0
15.044444,-1925.00,0
15.050000,-2662.50,0
15.055556,5112.50,0
15.061111,-1925.00,0
15.066667,-1712.50,1
15.072222,-10275.00,0
15.077778,5137.50,0
15.083333,8737.50,0
15.088889,5462.50,0
15.094444,-1725.00,0
15.100000,5337.50,0
15.105556,5112.50,0
15.111111,10475.00,0
15.116667,-1712.50,1
15.122222,-8862.50,0
15.127778,-2062.50,0
15.133333,5125.00,0
15.138889,-1737.50,0
15.144444,-4912.50,0
15.150000,-4075.00,0
15.155556,5112.50,0
15.161111,-16337.50,0
15.166667,5462.50,0
15.172222,-1725.00,0
15.177778,5137.50,0
15.183333,8312.50,0
15.188889,7475.00,0
15.194444,-1712.50,1
15.200000,12337.50,0
15.205556,-2062.50,0
15.211111,5125.00,0
15.216667,-1737.50,0
15.222222,-11512.50,0
15.227778,-675.00,0
15.233333,5112.50,0
15.238889,-5137.50,0
15.244444,7687.50,0
15.250000,-1850.00,0
15.255556,5137.50,0
15.261111,11725.00,0
15.266667,5662.50,0
15.272222,-1712.50,1
15.277778,5325.00,0
15.283333,8312.50,0
15.288889,9050.00,0
15.294444,-1737.50,0
15.300000,-5125.00,0
15.305556,-2462.50,0
15.311111,5112.50,0
15.316667,-1925.00,0
15.322222,-1712.50,1
15.327778,-3462.50,0
15.333333,5137.50,0
15.338889,8737.50,0
15.344444,5462.50,0
15.350000,-1725.00,0
15.355556,5325.00,0
15.361111,5112.50,0
15.366667,10475.00,0
15.372222,-1712.50,1
15.377778,-8637.50,0
15.383333,-2062.50,0
15.388889,5125.00,0
15.394444,-1937.50,0
15.400000,-4912.50,0
15.405556,-4075.00,0
15.411111,5112.50,0
15.416667,-24737.50,0
15.422222,5462.50,0
15.427778,-1725.00,0
15.433333,5137.50,0
15.438889,8312.50,0
15.444444,7475.00,0
15.450000,-1712.50,1
15.455556,15725.00,0
15.461111,-1850.00,0
15.466667,5125.00,0
15.472222,-1937.50,0
15.477778,-14512.50,0
15.483333,-875.00,0
15.488889,5112.50,0
15.494444,-8525.00,0
15.500000,7687.50,0
15.505556,-1862.50,0
15.511111,5137.50,0
15.516667,11725.00,0
15.522222,5862.50,0
15.527778,-1712.50,1
15.533333,8525.00,0
15.538889,8312.50,0
15.544444,3250.00,0
15.550000,-1737.50,0
15.555556,-1925.00,0
15.561111,-2462.50,0
15.566667,5112.50,0
15.572222,-1925.00,0
15.577778,-1712.50,1
15.583333,-6862.50,0
15.588889,5137.50,0
15.594444,8725.00,0
15.600000,5462.50,0
15.605556,-1712.50,1
15.611111,5325.00,0
15.616667,5112.50,0
15.622222,10462.50,0
15.627778,-1712.50,1
15.633333,-8637.50,0
15.638889,-2062.50,0
15.644444,5125.00,0
15.650000,-1737.50,0
15.655556,-4912.50,0
15.661111,-4275.00,0
15.666667,5112.50,0
15.672222,-22550.00,0
15.677778,5462.50,0
15.683333,-1725.00,0
15.688889,5137.50,0
15.694444,8312.50,0
15.700000,7675.00,0
15.705556,-1712.50,1
15.711111,12137.50,0
15.716667,-2062.50,0
15.722222,5125.00,0
15.727778,-1737.50,0
15.733333,-11512.50,0
15.738889,-675.00,0
15.744444,5112.50,0
15.750000,-8525.00,0
15.755556,7687.50,0
15.761111,-1862.50,0
15.766667,5137.50,0
15.772222,14925.00,0
15.777778,5862.50,0
15.783333,-1712.50,1
15.788889,5325.00,0
15.794444,11512.50,0
15.800000,9450.00,0
15.805556,-1737.50,0
15.811111,-5125.00,0
15.816667,-2462.50,0
15.822222,5112.50,0
15.827778,-1925.00,0
15.833333,-1712.50,1
15.838889,-6862.50,0
15.844444,5137.50,0
15.850000,8725.00,0
15.855556,5462.50,0
15.861111,-1712.50,1
15.866667,5325.00,0
15.872222,5112.50,0
15.877778,10462.50,0
15.883333,-1712.50,1
15.888889,-8850.00,0
15.894444,-2062.50,0
15.900000,5125.00,0
15.905556,-1737.50,0
15.911111,-1712.50,1
15.916667,-7475.00,0
15.922222,5112.50,0
15.927778,16662.50,0
15.933333,5462.50,0
15.938889,-1725.00,0
15.944444,5137.50,0
15.950000,8312.50,0
15.955556,7475.00,0
15.961111,-1712.50,1
15.966667,12537.50,0
15.972222,-2062.50,0
15.977778,5125.00,0
15.983333,-1737.50,0
15.988889,-8312.50,0
15.994444,-475.00,0
16.000000,5112.50,0
16.005556,-8537.50,0
16.011111,4487.50,0
16.016667,-1850.00,0
16.022222,5137.50,0
16.027778,24525.00,0
16.033333,5862.50,0
16.038889,-1712.50,1
16.044444,8525.00,0
16.050000,8312.50,0
16.055556,6050.00,0
16.061111,-1737.50,0
16.066667,-1925.00,0
16.072222,-2462.50,0
16.077778,5112.50,0
16.083333,-1925.00,0
16.088889,-1712.50,1
16.094444,-6662.50,0
16.100000,5137.50,0
16.105556,8725.00,0
16.111111,5662.50,0
16.116667,-1712.50,1
16.122222,5325.00,0
16.127778,5112.50,0
16.133333,10275.00,0
16.138889,-1725.00,0
16.144444,-8775.00,0
16.150000,-2062.50,0
16.155556,5125.00,0
16.161111,-1937.50,0
16.166667,-4912.50,0
16.172222,-4075.00,0
16.177778,5112.50,0
16.183333,-21537.50,0
16.188889,5262.50,0
16.194444,-1725.00,0
16.200000,5337.50,0
16.205556,8312.50,0
16.211111,7475.00,0
16.216667,-1712.50,1
16.222222,15337.50,0
16.227778,-2062.50,0
16.233333,5125.00,0
16.238889,-1737.50,0
16.244444,-8312.50,0
16.250000,-675.00,0
16.255556,5112.50,0
16.261111,-11737.50,0
16.266667,3875.00,0
16.272222,-1750.00,0
16.277778,5137.50,0
16.283333,21325.00,0
16.288889,5862.50,0
16.294444,-1712.50,1
16.300000,8525.00,0
16.305556,11512.50,0
16.311111,6262.50,0
16.316667,-1737.50,0
16.322222,-1925.00,0
16.327778,-2462.50,0
16.333333,5112.50,0
16.338889,-1925.00,0
16.344444,-1712.50,1
16.350000,-9862.50,0
16.355556,5137.50,0
16.361111,8725.00,0
16.366667,5662.50,0
16.372222,-1712.50,1
16.377778,5325.00,0
16.383333,5112.50,0
16.388889,6875.00,0
16.394444,-1737.50,0
16.400000,-5537.50,0
16.405556,-2062.50,0
16.411111,5125.00,0
16.416667,-1937.50,0
16.422222,-1712.50,1
16.427778,-7075.00,0
16.433333,5112.50,0
16.438889,13062.50,0
16.444444,-23537.50,0
16.450000,17600.00,0
16.455556,-23362.50,0
16.461111,-25600.00,0
16.466667,-12812.50,0
16.472222,-15950.00,0
16.477778,-6000.00,0
16.483333,-11550.00,0
16.488889,400.00,0
16.494444,-15962.50,0
16.500000,-25200.00,0
16.505556,-15962.50,0
16.511111,16125.00,0
16.516667,-19200.00,0
16.522222,-25200.00,0
16.527778,-19175.00,0
16.533333,-25200.00,0
16.538889,-19175.00,0
16.544444,-25200.00,0
16.550000,-19175.00,0
16.555556,-25200.00,0
16.561111,-19175.00,0
16.566667,-25200.00,0
16.572222,-19175.00,0
16.577778,-25200.00,0
16.583333,-19175.00,0
16.588889,-25200.00,0
16.594444,-19175.00,0
16.600000,5462.50,0
16.605556,-1725.00,0
16.611111,5137.50,0
16.616667,8312.50,0
16.622222,4475.00,0
16.627778,-1712.50,1
16.633333,-10262.50,0
16.638889,-1862.50,0
16.644444,5125.00,0
16.650000,-1937.50,0
16.655556,-8112.50,0
16.661111,-875.00,0
16.666667,5112.50,0
16.672222,-8537.50,0
16.677778,5262.50,0
16.683333,-1725.00,0
16.688889,5137.50,0
16.694444,15125.00,0
16.700000,4062.50,0
16.705556,-1712.50,1
16.711111,8525.00,0
16.716667,14712.50,0
16.722222,6050.00,0
16.727778,-1737.50,0
16.733333,-1925.00,0
16.738889,-2262.50,0
16.744444,5112.50,0
16.750000,-1925.00,0
16.755556,-4912.50,0
16.761111,-3662.50,0
16.766667,5137.50,0
16.772222,8725.00,0
16.777778,5462.50,0
16.783333,-1712.50,1
16.788889,5325.00,0
16.794444,5112.50,0
16.800000,10475.00,0
16.805556,-1750.00,0
16.811111,-8737.50,0
16.816667,-2050.00,0
16.822222,5125.00,0
16.827778,-1937.50,0
16.833333,-1712.50,1
16.838889,-7075.00,0
16.844444,5112.50,0
16.850000,10062.50,0
16.855556,5462.50,0
16.861111,-1725.00,0
16.866667,5137.50,0
16.872222,8312.50,0
16.877778,7475.00,0
16.883333,-1712.50,1
16.888889,16537.50,0
16.894444,-1862.50,0
16.900000,5125.00,0
16.905556,-1737.50,0
16.911111,-8312.50,0
16.916667,-875.00,0
16.922222,5112.50,0
16.927778,-11737.50,0
16.933333,5462.50,0
16.938889,-1725.00,0
16.944444,5137.50,0
16.950000,18125.00,0
16.955556,4262.50,0
16.961111,-1712.50,1
16.966667,8525.00,0
16.972222,14712.50,0
16.977778,6062.50,0
16.983333,-1737.50,0
16.988889,-5125.00,0
16.994444,-2262.50,0
17.000000,5112.50,0
17.005556,-1925.00,0
17.011111,-1712.50,1
17.016667,-5862.50,0
17.022222,5137.50,0
17.027778,5525.00,0
17.033333,5462.50,0
17.038889,-1712.50,1
17.044444,5325.00,0
17.050000,8312.50,0
17.055556,7275.00,0
17.061111,-1750.00,0
17.066667,-5537.50,0
17.072222,-2050.00,0
17.077778,5125.00,0
17.083333,-1937.50,0
17.088889,-1712.50,1
17.094444,-7275.00,0
17.100000,5112.50,0
17.105556,10062.50,0
17.111111,5462.50,0
17.116667,-1725.00,0
17.122222,5137.50,0
17.127778,8312.50,0
17.133333,7675.00,0
17.138889,-1712.50,1
17.144444,18537.50,0
17.150000,-1862.50,0
17.155556,5125.00,0
17.161111,-1937.50,0
17.166667,-8112.50,0
17.172222,-875.00,0
17.177778,5112.50,0
17.183333,-11737.50,0
17.188889,5262.50,0
17.194444,-1737.50,0
17.200000,5150.00,0
17.205556,15125.00,0
17.211111,3862.50,0
17.216667,-1712.50,1
17.222222,8525.00,0
17.227778,-14087.50,0
17.233333,6062.50,0
17.238889,-1737.50,0
17.244444,-5125.00,0
17.250000,-2462.50,0
17.255556,5112.50,0
17.261111,-1925.00,0
17.266667,-1712.50,1
17.272222,-5862.50,0
17.277778,5137.50,0
17.283333,5325.00,0
17.288889,6062.50,0
17.294444,-1712.50,1
17.300000,5325.00,0
17.305556,5112.50,0
17.311111,10462.50,0
17.316667,-1737.50,0
17.322222,-5325.00,0
17.327778,-2062.50,0
17.333333,5125.00,0
17.338889,-3912.50,0
17.344444,-1737.50,0
17.350000,-20312.50,0
17.355556,5112.50,0
17.361111,11875.00,0
17.366667,-4087.50,0
17.372222,-1712.50,1
17.377778,8312.50,0
17.383333,5037.50,0
17.388889,-8487.50,0
17.394444,-1712.50,1
17.400000,-6887.50,0
17.405556,7487.50,0
17.411111,5112.50,0
17.416667,-4912.50,0
17.422222,-1862.50,0
17.427778,21287.50,0
17.433333,5112.50,0
17.438889,-15112.50,0
17.444444,-4287.50,0
17.450000,-1712.50,1
17.455556,8312.50,0
17.461111,5475.00,0
17.466667,-8487.50,0
17.472222,-1712.50,1
17.477778,8712.50,0
17.483333,5075.00,0
17.488889,7512.50,0
17.494444,-4912.50,0
17.500000,-1662.50,0
17.505556,7287.50,0
17.511111,5112.50,0
17.516667,-17712.50,0
17.522222,-1725.00,0
17.527778,-7325.00,0
17.533333,8312.50,0
17.538889,5262.50,0
17.544444,-4087.50,0
17.550000,-1712.50,1
17.555556,18112.50,0
17.561111,5137.50,0
17.566667,-13287.50,0
17.572222,-4912.50,0
17.577778,-2262.50,0
17.583333,7287.50,0
17.588889,5112.50,0
17.594444,-5112.50,0
17.600000,-1762.50,0
17.605556,15087.50,0
17.611111,5112.50,0
17.616667,12075.00,0
17.622222,-4087.50,0
17.627778,-1712.50,1
17.633333,8312.50,0
17.638889,5175.00,0
17.644444,-8287.50,0
17.650000,-1712.50,1
17.655556,-15287.50,0
17.661111,7687.50,0
17.666667,5112.50,0
17.672222,-8112.50,0
17.677778,-1612.50,0
17.683333,11887.50,0
17.688889,5112.50,0
17.694444,16887.50,0
17.700000,-4087.50,0
17.705556,-1712.50,1
17.711111,8312.50,0
17.716667,5275.00,0
17.722222,-5887.50,0
17.727778,-1712.50,1
17.733333,14912.50,0
17.738889,5075.00,0
17.744444,12112.50,0
17.750000,-4912.50,0
17.755556,-1875.00,0
17.761111,10087.50,0
17.766667,5112.50,0
17.772222,-11512.50,0
17.777778,-1762.50,0
17.783333,-7112.50,0
17.788889,8312.50,0
17.794444,5250.00,0
17.800000,-3687.50,0
17.805556,-1712.50,1
17.811111,11712.50,0
17.816667,5137.50,0
17.822222,13912.50,0
17.827778,-4912.50,0
17.833333,-1862.50,0
17.838889,4287.50,0
17.844444,5112.50,0
17.850000,-4912.50,0
17.855556,-1737.50,0
17.861111,15087.50,0
17.866667,5112.50,0
17.872222,8875.00,0
17.877778,-4287.50,0
17.883333,-1712.50,1
17.888889,11712.50,0
17.894444,5037.50,0
17.900000,-8887.50,0
17.905556,-1712.50,1
17.911111,-7087.50,0
17.916667,7487.50,0
17.922222,5112.50,0
17.927778,-4912.50,0
17.933333,-1862.50,0
17.938889,15087.50,0
17.944444,5112.50,0
17.950000,-18512.50,0
17.955556,-4287.50,0
17.961111,-1712.50,1
17.966667,8312.50,0
17.972222,5262.50,0
17.977778,-5887.50,0
17.983333,-1712.50,1
17.988889,11912.50,0
17.994444,5287.50,0
18.000000,8712.50,0
18.005556,-4912.50,0
18.011111,-1675.00,0
18.016667,7487.50,0
18.022222,5112.50,0
18.027778,17487.50,0
18.033333,-1737.50,0
18.038889,-10112.50,0
18.044444,8312.50,0
18.050000,5262.50,0
18.055556,-4087.50,0
18.061111,-1712.50,1
18.066667,18112.50,0
18.072222,5125.00,0
18.077778,25312.50,0
18.083333,-4912.50,0
18.088889,-2262.50,0
18.094444,7287.50,0
18.100000,5112.50,0
18.105556,-5112.50,0
18.111111,-1737.50,0
18.116667,15087.50,0
18.122222,5112.50,0
18.127778,12062.50,0
18.133333,-4287.50,0
18.138889,-1712.50,1
18.144444,11512.50,0
18.150000,5162.50,0
18.155556,-11487.50,0
18.161111,-1712.50,1
18.166667,-6887.50,0
18.172222,7687.50,0
18.177778,5112.50,0
18.183333,-8112.50,0
18.188889,-1787.50,0
18.194444,12087.50,0
18.200000,5112.50,0
18.205556,10687.50,0
18.211111,-4087.50,0
18.216667,-1712.50,1
18.222222,8312.50,0
18.227778,5275.00,0
18.233333,-8487.50,0
18.238889,-1712.50,1
18.244444,18112.50,0
18.250000,5287.50,0
18.255556,11712.50,0
18.261111,-4912.50,0
18.266667,-1875.00,0
18.272222,10087.50,0
18.277778,5112.50,0
18.283333,-11512.50,0
18.288889,-23537.50,0
18.294444,17600.00,0
18.300000,-23362.50,0
18.305556,-25600.00,0
18.311111,-22412.50,0
18.316667,-19175.00,0
18.322222,-25200.00,0
18.327778,-19175.00,0
18.333333,-18600.00,0
18.338889,-19162.50,0
18.344444,-12137.50,0
18.350000,-19162.50,0
18.355556,-12150.00,0
18.361111,-19150.00,0
18.366667,-15337.50,0
18.372222,-19162.50,0
18.377778,-21750.00,0
18.383333,-19162.50,0
18.388889,-24962.50,0
18.394444,-19162.50,0
18.400000,637.50,0
18.405556,-19162.50,0
18.411111,-2550.00,0
18.416667,-19162.50,0
18.422222,-21787.50,0
18.427778,-19162.50,0
18.433333,-15350.00,0
18.438889,-19162.50,0
18.444444,-1650.00,0
18.450000,-7112.50,0
18.455556,8312.50,0
18.461111,5237.50,0
18.466667,-4087.50,0
18.472222,-1712.50,1
18.477778,21112.50,0
18.483333,5125.00,0
18.488889,-19287.50,0
18.494444,-4912.50,0
18.500000,-275.00,0
18.505556,7087.50,0
18.511111,5112.50,0
18.516667,-4912.50,0
18.522222,-1737.50,0
18.527778,11887.50,0
18.533333,5112.50,0
18.538889,9062.50,0
18.544444,-3887.50,0
18.550000,-1712.50,1
18.555556,8512.50,0
18.561111,5050.00,0
18.566667,-24287.50,0
18.572222,-1712.50,1
18.577778,-12075.00,0
18.583333,7687.50,0
18.588889,5112.50,0
18.594444,-8112.50,0
18.600000,-1637.50,0
18.605556,11887.50,0
18.611111,5112.50,0
18.616667,13887.50,0
18.622222,-4087.50,0
18.627778,-1712.50,1
18.633333,8312.50,0
18.638889,5275.00,0
18.644444,-8687.50,0
18.650000,-1712.50,1
18.655556,-17087.50,0
18.661111,6087.50,0
18.666667,11512.50,0
18.672222,-4912.50,0
18.677778,-1887.50,0
18.683333,15287.50,0
18.688889,5112.50,0
18.694444,-8512.50,0
18.700000,-1637.50,0
18.705556,-3512.50,0
18.711111,8312.50,0
18.716667,5262.50,0
18.722222,-6887.50,0
18.727778,-1712.50,1
18.733333,11712.50,0
18.738889,5137.50,0
18.744444,10712.50,0
18.750000,-4912.50,0
18.755556,-2062.50,0
18.761111,7487.50,0
18.766667,5112.50,0
18.772222,-8112.50,0
18.777778,-1725.00,0
18.783333,15087.50,0
18.788889,5112.50,0
18.794444,8862.50,0
18.800000,-4087.50,0
18.805556,-1712.50,1
18.811111,8312.50,0
18.816667,5175.00,0
18.822222,-8287.50,0
18.827778,-1712.50,1
18.833333,-3675.00,0
18.838889,7487.50,0
18.844444,5112.50,0
18.850000,-4912.50,0
18.855556,-1662.50,0
18.861111,11687.50,0
18.866667,5112.50,0
18.872222,13487.50,0
18.877778,-4087.50,0
18.883333,-1712.50,1
18.888889,8312.50,0
18.894444,5262.50,0
18.900000,-8887.50,0
18.905556,-1712.50,1
18.911111,21512.50,0
18.916667,7287.50,0
18.922222,5112.50,0
18.927778,-4912.50,0
18.933333,-1875.00,0
18.938889,12687.50,0
18.944444,5112.50,0
18.950000,-11512.50,0
18.955556,-1662.50,0
18.961111,-9112.50,0
18.966667,8312.50,0
18.972222,5262.50,0
18.977778,-3687.50,0
18.983333,-1712.50,1
18.988889,11712.50,0
18.994444,5137.50,0
19.000000,13112.50,0
19.005556,-4912.50,0
19.011111,-2062.50,0
19.016667,7287.50,0
19.022222,5112.50,0
19.027778,-8312.50,0
19.033333,-1737.50,0
19.038889,-16512.50,0
19.044444,8312.50,0
19.050000,5675.00,0
19.055556,-4087.50,0
19.061111,-1712.50,1
19.066667,11712.50,0
19.072222,5150.00,0
19.077778,-11687.50,0
19.083333,-1712.50,1
19.088889,-6875.00,0
19.094444,7487.50,0
19.100000,5112.50,0
19.105556,-4912.50,0
19.111111,-1662.50,0
19.116667,11687.50,0
19.122222,5112.50,0
19.127778,13687.50,0
19.133333,-4087.50,0
19.138889,-1712.50,1
19.144444,8312.50,0
19.150000,5262.50,0
19.155556,-8887.50,0
19.161111,-1712.50,1
19.166667,21512.50,0
19.172222,7487.50,0
19.177778,5112.50,0
19.183333,-4912.50,0
19.188889,-1875.00,0
19.194444,12087.50,0
19.200000,5112.50,0
19.205556,-11512.50,0
19.211111,-1662.50,0
19.216667,-6712.50,0
19.222222,8312.50,0
19.227778,5262.50,0
19.233333,-3687.50,0
19.238889,-1712.50,1
19.244444,11712.50,0
19.250000,5137.50,0
19.255556,13312.50,0
19.261111,-4912.50,0
19.266667,-2062.50,0
19.272222,7487.50,0
19.277778,5112.50,0
19.283333,-8312.50,0
19.288889,-1737.50,0
19.294444,-16512.50,0
19.300000,8312.50,0
19.305556,5475.00,0
19.311111,-4087.50,0
19.316667,-1712.50,1
19.322222,11712.50,0
19.327778,5150.00,0
19.333333,-11887.50,0
19.338889,-1712.50,1
19.344444,-9275.00,0
19.350000,7487.50,0
19.355556,5112.50,0
19.361111,-4912.50,0
19.366667,-1662.50,0
19.372222,11687.50,0
19.377778,5112.50,0
19.383333,13687.50,0
19.388889,-4087.50,0
19.394444,-1712.50,1
19.400000,8312.50,0
19.405556,5062.50,0
19.411111,-8287.50,0
19.416667,-1712.50,1
19.422222,-20087.50,0
19.427778,7687.50,0
19.433333,5112.50,0
19.438889,-4912.50,0
19.444444,-2075.00,0
19.450000,12087.50,0
19.455556,5112.50,0
19.461111,-14712.50,0
19.466667,-1662.50,0
19.472222,-6312.50,0
19.477778,8312.50,0
19.483333,5262.50,0
19.488889,-7087.50,0
19.494444,-1712.50,1
19.500000,11712.50,0
19.505556,5137.50,0
19.511111,13512.50,0
19.516667,-4912.50,0
19.522222,-2050.00,0
19.527778,7487.50,0
19.533333,5112.50,0
19.538889,-8312.50,0
19.544444,-1737.50,0
19.550000,-13512.50,0
19.555556,8312.50,0
19.561111,5662.50,0
19.566667,-4087.50,0
19.572222,-1712.50,1
19.577778,11712.50,0
19.583333,5150.00,0
19.588889,-11887.50,0
19.594444,-1712.50,1
19.600000,-9275.00,0
19.605556,7487.50,0
19.611111,5112.50,0
19.616667,-4912.50,0
19.622222,-1637.50,0
19.627778,11687.50,0
19.633333,5112.50,0
19.638889,13687.50,0
19.644444,-4287.50,0
19.650000,-1712.50,1
19.655556,8312.50,0
19.661111,5262.50,0
19.666667,-8487.50,0
19.672222,-1712.50,1
19.677778,21512.50,0
19.683333,7487.50,0
19.688889,5112.50,0
19.694444,-4912.50,0
19.700000,-1875.00,0
19.705556,12087.50,0
19.711111,5112.50,0
19.716667,-11512.50,0
19.722222,-1675.00,0
19.727778,-5712.50,0
19.733333,8312.50,0
19.738889,5275.00,0
19.744444,-7087.50,0
19.750000,-1712.50,1
19.755556,11712.50,0
19.761111,5137.50,0
19.766667,15712.50,0
19.772222,-4912.50,0
19.777778,-1862.50,0
19.783333,7087.50,0
19.788889,5112.50,0
19.794444,-8312.50,0
19.800000,-1737.50,0
19.805556,-16712.50,0
19.811111,8312.50,0
19.816667,5662.50,0
19.822222,-4087.50,0
19.827778,-1712.50,1
19.833333,11712.50,0
19.838889,5150.00,0
19.844444,-15087.50,0
19.850000,-1712.50,1
19.855556,-5875.00,0
19.861111,7487.50,0
19.866667,5112.50,0
19.872222,-8112.50,0
19.877778,-1625.00,0
19.883333,14887.50,0
19.888889,5112.50,0
19.894444,10487.50,0
19.900000,-4287.50,0
19.905556,-1712.50,1
19.911111,8512.50,0
19.916667,5050.00,0
19.922222,-8687.50,0
19.927778,-1712.50,1
19.933333,-16887.50,0
19.938889,7687.50,0
19.944444,5112.50,0
19.950000,-4912.50,0
19.955556,-1875.00,0
19.961111,11887.50,0
19.966667,5112.50,0
19.972222,-11512.50,0
19.977778,-1675.00,0
19.983333,-5712.50,0
19.988889,8312.50,0
19.994444,5275.00,0
20.000000,-7287.50,0
20.005556,-1712.50,1
20.011111,11712.50,0
20.016667,5137.50,0
20.022222,10112.50,0
20.027778,-4912.50,0
20.033333,-1850.00,0
20.038889,7287.50,0
20.044444,5112.50,0
20.050000,-8312.50,0
20.055556,-1737.50,0
20.061111,-10112.50,0
20.066667,8312.50,0
20.072222,5462.50,0
20.077778,-4087.50,0
20.083333,-1712.50,1
20.088889,11712.50,0
20.094444,5150.00,0
20.100000,-15087.50,0
20.105556,-1712.50,1
20.111111,-5675.00,0
20.116667,7487.50,0
20.122222,5112.50,0
20.127778,-8112.50,0
20.133333,-23537.50,0
20.138889,17600.00,0
20.144444,-23362.50,0
20.150000,-25600.00,0
20.155556,-6412.50,0
20.161111,-14762.50,0
20.166667,-6000.00,0
20.172222,-14762.50,0
20.177778,-9200.00,0
20.183333,-11550.00,0
20.188889,-25200.00,0
20.194444,-15962.50,0
20.200000,-9200.00,0
20.205556,-15750.00,0
20.211111,-18800.00,0
20.216667,-11562.50,0
20.222222,16125.00,0
20.227778,-19200.00,0
20.233333,-25200.00,0
20.238889,-19175.00,0
20.244444,-25200.00,0
20.250000,-19175.00,0
20.255556,-25200.00,0
20.261111,-19175.00,0
20.266667,-25200.00,0
20.272222,-19175.00,0
20.277778,-25200.00,0
20.283333,-19175.00,0
20.288889,-1800.00,0
20.294444,14887.50,0
20.300000,5112.50,0
20.305556,10287.50,0
20.311111,-4087.50,0
20.316667,-1712.50,1
20.322222,8312.50,0
20.327778,5037.50,0
20.333333,-8487.50,0
20.338889,-1712.50,1
20.344444,-13287.50,0
20.350000,7687.50,0
20.355556,5112.50,0
20.361111,-4912.50,0
20.366667,-1875.00,0
20.372222,11887.50,0
20.377778,5112.50,0
20.383333,-14712.50,0
20.388889,-1887.50,0
20.394444,-5312.50,0
20.400000,8312.50,0
20.405556,5287.50,0
20.411111,-6887.50,0
20.416667,-1712.50,1
20.422222,11712.50,0
20.427778,5150.00,0
20.433333,13312.50,0
20.438889,-4912.50,0
20.444444,-1862.50,0
20.450000,7087.50,0
20.455556,5112.50,0
20.461111,-8312.50,0
20.466667,-1725.00,0
20.472222,-13325.00,0
20.477778,8312.50,0
20.483333,5475.00,0
20.488889,-4087.50,0
20.494444,-1737.50,0
20.500000,11712.50,0
20.505556,5112.50,0
20.511111,-11637.50,0
20.516667,-1712.50,1
20.522222,-5662.50,0
20.527778,-11337.50,0
20.533333,5112.50,0
20.538889,-4912.50,0
20.544444,-1925.00,0
20.550000,13750.00,0
20.555556,5112.50,0
20.561111,13662.50,0
20.566667,11537.50,0
20.572222,-1712.50,1
20.577778,8312.50,0
20.583333,5337.50,0
20.588889,-16825.00,0
20.594444,-1712.50,1
20.600000,-13475.00,0
20.605556,-8125.00,0
20.611111,5112.50,0
20.616667,-4912.50,0
20.622222,-2362.50,0
20.627778,14050.00,0
20.633333,5112.50,0
20.638889,-14725.00,0
20.644444,-4150.00,0
20.650000,-1725.00,0
20.655556,5112.50,0
20.661111,5425.00,0
20.666667,17950.00,0
20.672222,-1712.50,1
20.677778,11712.50,0
20.683333,5112.50,0
20.688889,12475.00,0
20.694444,-1712.50,1
20.700000,-1825.00,0
20.705556,17462.50,0
20.711111,5112.50,0
20.716667,-8325.00,0
20.722222,-1712.50,1
20.727778,-6650.00,0
20.733333,5112.50,0
20.738889,8650.00,0
20.744444,14737.50,0
20.750000,-1712.50,1
20.755556,8312.50,0
20.761111,5112.50,0
20.766667,20275.00,0
20.772222,-1712.50,1
20.777778,-5662.50,0
20.783333,-14525.00,0
20.788889,5112.50,0
20.794444,-4912.50,0
20.800000,-1925.00,0
20.805556,16737.50,0
20.811111,5112.50,0
20.816667,10462.50,0
20.822222,14737.50,0
20.827778,-1712.50,1
20.833333,8312.50,0
20.838889,5337.50,0
20.844444,-13637.50,0
20.850000,-1712.50,1
20.855556,-13675.00,0
20.861111,-8125.00,0
20.866667,5112.50,0
20.872222,-1712.50,1
20.877778,-2575.00,0
20.883333,7637.50,0
20.888889,5112.50,0
20.894444,-11725.00,0
20.900000,-7437.50,0
20.905556,-1725.00,0
20.911111,5112.50,0
20.916667,5637.50,0
20.922222,-14050.00,0
20.927778,-1712.50,1
20.933333,11725.00,0
20.938889,5112.50,0
20.944444,9825.00,0
20.950000,-1712.50,1
20.955556,-1987.50,0
20.961111,17462.50,0
20.966667,5112.50,0
20.972222,-8312.50,0
20.977778,-1712.50,1
20.983333,-15075.00,0
20.988889,5112.50,0
20.994444,5450.00,0
21.000000,-14062.50,0
21.005556,-1712.50,1
21.011111,8512.50,0
21.016667,5112.50,0
21.022222,-21725.00,0
21.027778,-1712.50,1
21.033333,-5237.50,0
21.038889,-14525.00,0
21.044444,5112.50,0
21.050000,-4912.50,0
21.055556,-1925.00,0
21.061111,16737.50,0
21.066667,5112.50,0
21.072222,10262.50,0
21.077778,14725.00,0
21.083333,-1712.50,1
21.088889,8312.50,0
21.094444,5337.50,0
21.100000,-10562.50,0
21.105556,-1712.50,1
21.111111,-10475.00,0
21.116667,-8125.00,0
21.122222,5112.50,0
21.127778,-1712.50,1
21.133333,-2362.50,0
21.138889,7437.50,0
21.144444,5112.50,0
21.150000,-17925.00,0
21.155556,-23662.50,0
21.161111,-1712.50,1
21.166667,5112.50,0
21.172222,4187.50,0
21.177778,-7450.00,0
21.183333,-1712.50,1
21.188889,11725.00,0
21.194444,5112.50,0
21.200000,12237.50,0
21.205556,-1712.50,1
21.211111,-1987.50,0
21.216667,17462.50,0
21.222222,5112.50,0
21.227778,-8325.00,0
21.233333,-1712.50,1
21.238889,-9037.50,0
21.244444,5112.50,0
21.250000,5437.50,0
21.255556,-10862.50,0
21.261111,-1712.50,1
21.266667,8312.50,0
21.272222,5112.50,0
21.277778,-15125.00,0
21.283333,-1712.50,1
21.288889,-5450.00,0
21.294444,-14537.50,0
21.300000,5112.50,0
21.305556,-4912.50,0
21.311111,-1725.00,0
21.316667,18550.00,0
21.322222,5112.50,0
21.327778,12262.50,0
21.333333,14737.50,0
21.338889,-1712.50,1
21.344444,8312.50,0
21.350000,5325.00,0
21.355556,-19950.00,0
21.361111,-1712.50,1
21.366667,-13475.00,0
21.372222,-8125.00,0
21.377778,5112.50,0
21.383333,-1712.50,1
21.388889,-2350.00,0
21.394444,7637.50,0
21.400000,5112.50,0
21.405556,-18125.00,0
21.411111,11525.00,0
21.416667,-1712.50,1
21.422222,5112.50,0
21.427778,6837.50,0
21.433333,-7437.50,0
21.438889,-1712.50,1
21.444444,11725.00,0
21.450000,5112.50,0
21.455556,8837.50,0
21.461111,-1712.50,1
21.466667,-2000.00,0
21.472222,-14537.50,0
21.477778,5112.50,0
21.483333,-8312.50,0
21.488889,-1712.50,1
21.494444,-8675.00,0
21.500000,5112.50,0
21.505556,5437.50,0
21.511111,-14062.50,0
21.516667,-1712.50,1
21.522222,8312.50,0
21.527778,5112.50,0
21.533333,-14925.00,0
21.538889,-1712.50,1
21.544444,-5450.00,0
21.550000,-14525.00,0
21.555556,5112.50,0
21.561111,-4912.50,0
21.566667,-1725.00,0
21.572222,21537.50,0
21.577778,5112.50,0
21.583333,9662.50,0
21.588889,14725.00,0
21.594444,-1712.50,1
21.600000,8312.50,0
21.605556,5337.50,0
21.611111,-16762.50,0
21.616667,-1712.50,1
21.622222,-13462.50,0
21.627778,-8137.50,0
21.633333,5112.50,0
21.638889,-4912.50,0
21.644444,-2137.50,0
21.650000,13825.00,0
21.655556,5112.50,0
21.661111,-14725.00,0
21.666667,11525.00,0
21.672222,-1712.50,1
21.677778,5112.50,0
21.683333,6837.50,0
21.688889,-10637.50,0
21.694444,-1712.50,1
21.700000,11725.00,0
21.705556,5312.50,0
21.711111,11637.50,0
21.716667,-1712.50,1
21.722222,-1975.00,0
21.727778,20662.50,0
21.733333,5112.50,0
21.738889,-8325.00,0
21.744444,-1712.50,1
21.750000,-8837.50,0
21.755556,5112.50,0
21.761111,5212.50,0
21.766667,-10862.50,0
21.772222,-1712.50,1
21.777778,8512.50,0
21.783333,5112.50,0
21.788889,-16525.00,0
21.794444,-1712.50,1
21.800000,-5450.00,0
21.805556,-11337.50,0
21.811111,5112.50,0
21.816667,-4912.50,0
21.822222,-1712.50,1
21.827778,18325.00,0
21.833333,5112.50,0
21.838889,12462.50,0
21.844444,14725.00,0
21.850000,-1712.50,1
21.855556,8312.50,0
21.861111,5325.00,0
21.866667,-13537.50,0
21.872222,-1712.50,1
21.877778,-10475.00,0
21.883333,-8125.00,0
21.888889,5112.50,0
21.894444,-4912.50,0
21.900000,-2150.00,0
21.905556,13825.00,0
21.911111,5112.50,0
21.916667,-17925.00,0
21.922222,11525.00,0
21.927778,-1712.50,1
21.933333,5112.50,0
21.938889,9225.00,0
21.944444,-10637.50,0
21.950000,-1712.50,1
21.955556,11725.00,0
21.961111,5325.00,0
21.966667,8537.50,0
21.972222,-1712.50,1
21.977778,-23537.50,0
21.983333,17600.00,0
21.988889,-23362.50,0
21.994444,-25600.00,0
22.000000,-23550.00,0
22.005556,-19175.00,0
22.011111,-25200.00,0
22.016667,-19175.00,0
22.022222,-25200.00,0
22.027778,-19175.00,0
22.033333,-25200.00,0
22.038889,-19175.00,0
22.044444,-25200.00,0
22.050000,-19175.00,0
22.055556,-24550.00,0
22.061111,-10175.00,0
22.066667,-15600.00,0
22.072222,-19137.50,0
22.077778,-24787.50,0
22.083333,-15975.00,0
22.088889,400.00,0
22.094444,-19162.50,0
22.100000,-24712.50,0
22.105556,-19175.00,0
22.111111,-25200.00,0
22.116667,-12175.00,0
22.122222,-6000.00,0
22.127778,-19137.50,0
22.133333,-1975.00,0
22.138889,-17737.50,0
22.144444,5112.50,0
22.150000,-4925.00,0
22.155556,-1712.50,1
22.161111,-13237.50,0
22.166667,5112.50,0
22.172222,5225.00,0
22.177778,-14062.50,0
22.183333,-1712.50,1
22.188889,8525.00,0
22.194444,5112.50,0
22.200000,-16550.00,0
22.205556,-1712.50,1
22.211111,-5250.00,0
22.216667,-8137.50,0
22.222222,5112.50,0
22.227778,-4912.50,0
22.233333,-1712.50,1
22.238889,18325.00,0
22.244444,5112.50,0
22.250000,12062.50,0
22.255556,11525.00,0
22.261111,-1712.50,1
22.266667,8312.50,0
22.272222,5325.00,0
22.277778,-13537.50,0
22.283333,-1712.50,1
22.288889,-10262.50,0
22.294444,-8137.50,0
22.300000,5112.50,0
22.305556,-4912.50,0
22.311111,-1937.50,0
22.316667,13625.00,0
22.322222,5112.50,0
22.327778,23475.00,0
22.333333,11525.00,0
22.338889,-1712.50,1
22.344444,5112.50,0
22.350000,9375.00,0
22.355556,-10637.50,0
22.361111,-1712.50,1
22.366667,14925.00,0
22.372222,6125.00,0
22.377778,8337.50,0
22.383333,-1712.50,1
22.388889,-1975.00,0
22.394444,-11337.50,0
22.400000,5112.50,0
22.405556,-8325.00,0
22.411111,-1712.50,1
22.416667,-8850.00,0
22.422222,5112.50,0
22.427778,5425.00,0
22.433333,-10862.50,0
22.438889,-1712.50,1
22.444444,8325.00,0
22.450000,5112.50,0
22.455556,20250.00,0
22.461111,-1712.50,1
22.466667,-5450.00,0
22.472222,-11337.50,0
22.477778,5112.50,0
22.483333,-4912.50,0
22.488889,-1712.50,1
22.494444,21725.00,0
22.500000,5112.50,0
22.505556,8862.50,0
22.511111,17925.00,0
22.516667,-1712.50,1
22.522222,8312.50,0
22.527778,5325.00,0
22.533333,-10337.50,0
22.538889,-1712.50,1
22.544444,-10062.50,0
22.550000,-8137.50,0
22.555556,5112.50,0
22.561111,-4912.50,0
22.566667,-2137.50,0
22.572222,13825.00,0
22.577778,5112.50,0
22.583333,-24525.00,0
22.588889,11525.00,0
22.594444,-1712.50,1
22.600000,5112.50,0
22.605556,3375.00,0
22.611111,-4237.50,0
22.616667,-1712.50,1
22.622222,14925.00,0
22.627778,7137.50,0
22.633333,5125.00,0
22.638889,-1712.50,1
22.644444,-1962.50,0
22.650000,-11337.50,0
22.655556,5112.50,0
22.661111,-8325.00,0
22.666667,-1712.50,1
22.672222,-8850.00,0
22.677778,5112.50,0
22.683333,5200.00,0
22.688889,-14062.50,0
22.694444,-1712.50,1
22.700000,11725.00,0
22.705556,5112.50,0
22.711111,15850.00,0
22.716667,-1712.50,1
22.722222,-5250.00,0
22.727778,-11337.50,0
22.733333,5112.50,0
22.738889,-4912.50,0
22.744444,-1712.50,1
22.750000,21525.00,0
22.755556,5112.50,0
22.761111,8862.50,0
22.766667,17925.00,0
22.772222,-1712.50,1
22.777778,8312.50,0
22.783333,5325.00,0
22.788889,-13537.50,0
22.794444,-1712.50,1
22.800000,-6862.50,0
22.805556,-8137.50,0
22.811111,5112.50,0
22.816667,-4912.50,0
22.822222,-1937.50,0
22.827778,13837.50,0
22.833333,5112.50,0
22.838889,20075.00,0
22.844444,11525.00,0
22.850000,-1712.50,1
22.855556,5112.50,0
22.861111,5962.50,0
22.866667,-4237.50,0
22.872222,-1712.50,1
22.877778,14925.00,0
22.883333,10962.50,0
22.888889,5125.00,0
22.894444,-1712.50,1
22.900000,-2037.50,0
22.905556,23650.00,0
22.911111,5112.50,0
22.916667,-8325.00,0
22.922222,-1712.50,1
22.927778,-8437.50,0
22.933333,5112.50,0
22.938889,5225.00,0
22.944444,-14062.50,0
22.950000,-1712.50,1
22.955556,11725.00,0
22.961111,5112.50,0
22.966667,15437.50,0
22.972222,-1712.50,1
22.977778,-5237.50,0
22.983333,-11337.50,0
22.988889,5112.50,0
22.994444,-4912.50,0
23.000000,-1712.50,1
23.005556,21525.00,0
23.011111,5112.50,0
23.016667,8850.00,0
23.022222,17937.50,0
23.027778,-1712.50,1
23.033333,8312.50,0
23.038889,5325.00,0
23.044444,-13150.00,0
23.050000,-1712.50,1
23.055556,-6862.50,0
23.061111,-11337.50,0
23.066667,5112.50,0
23.072222,-4912.50,0
23.077778,-1925.00,0
23.083333,20150.00,0
23.088889,5112.50,0
23.094444,13875.00,0
23.100000,11525.00,0
23.105556,-1712.50,1
23.111111,8312.50,0
23.116667,5550.00,0
23.122222,-10425.00,0
23.127778,-1712.50,1
23.133333,18125.00,0
23.138889,17462.50,0
23.144444,5112.50,0
23.150000,-1712.50,1
23.155556,-575.00,0
23.161111,10850.00,0
23.166667,5112.50,0
23.172222,-8325.00,0
23.177778,-1712.50,1
23.183333,-8637.50,0
23.188889,5112.50,0
23.194444,5225.00,0
23.200000,-14062.50,0
23.205556,-1712.50,1
23.211111,11725.00,0
23.216667,5112.50,0
23.222222,12237.50,0
23.227778,-1712.50,1
23.233333,-2037.50,0
23.238889,17462.50,0
23.244444,5112.50,0
23.250000,-4912.50,0
23.255556,-1712.50,1
23.261111,18525.00,0
23.266667,5112.50,0
23.272222,8650.00,0
23.277778,14737.50,0
23.283333,-1712.50,1
23.288889,8312.50,0
23.294444,5125.00,0
23.300000,-11750.00,0
23.305556,-1712.50,1
23.311111,-6462.50,0
23.316667,-11337.50,0
23.322222,5112.50,0
23.327778,-4912.50,0
23.333333,-1925.00,0
23.338889,16950.00,0
23.344444,5112.50,0
23.350000,13662.50,0
23.355556,11537.50,0
23.361111,-1712.50,1
23.366667,8312.50,0
23.372222,5750.00,0
23.377778,-10425.00,0
23.383333,-1712.50,1
23.388889,21325.00,0
23.394444,-8125.00,0
23.400000,5112.50,0
23.405556,-1712.50,1
23.411111,-3450.00,0
23.416667,14050.00,0
23.422222,5112.50,0
23.427778,-8325.00,0
23.433333,-1912.50,0
23.438889,-8237.50,0
23.444444,5112.50,0
23.450000,5375.00,0
23.455556,-20462.50,0
23.461111,-1712.50,1
23.466667,11725.00,0
23.472222,5112.50,0
23.477778,12437.50,0
23.483333,-1712.50,1
23.488889,-2025.00,0
23.494444,14262.50,0
23.500000,5125.00,0
23.505556,-11325.00,0
23.511111,-4912.50,0
23.516667,-6875.00,0
23.522222,5150.00,0
23.527778,8737.50,0
23.533333,5450.00,0
23.538889,-1725.00,0
23.544444,5337.50,0
23.550000,8312.50,0
23.555556,7275.00,0
23.561111,-1712.50,1
23.566667,-12262.50,0
23.572222,-2062.50,0
23.577778,5125.00,0
23.583333,-1737.50,0
23.588889,-4912.50,0
23.594444,-4275.00,0
23.600000,5112.50,0
23.605556,-11937.50,0
23.611111,5262.50,0
23.616667,-1725.00,0
23.622222,5137.50,0
23.627778,11712.50,0
23.633333,4075.00,0
23.638889,-1712.50,1
23.644444,15337.50,0
23.650000,-2062.50,0
23.655556,5125.00,0
23.661111,-1737.50,0
23.666667,-14712.50,0
23.672222,-675.00,0
23.677778,5112.50,0
23.683333,-5125.00,0
23.688889,-14512.50,0
23.694444,-2662.50,0
23.700000,5125.00,0
23.705556,8525.00,0
23.711111,5675.00,0
23.716667,-1712.50,1
23.722222,5325.00,0
23.727778,5112.50,0
23.733333,6450.00,0
23.738889,-1737.50,0
23.744444,-1925.00,0
23.750000,-2662.50,0
23.755556,5112.50,0
23.761111,-1925.00,0
23.766667,-1712.50,1
23.772222,-10062.50,0
23.777778,5137.50,0
23.783333,8725.00,0
23.788889,5462.50,0
23.794444,-1712.50,1
23.800000,5325.00,0
23.805556,5112.50,0
23.811111,10462.50,0
23.816667,-1712.50,1
23.822222,-23537.50,0
23.827778,17600.00,0
23.833333,-23362.50,0
23.838889,-25600.00,0
23.844444,-6400.00,0
23.850000,-19125.00,0
23.855556,-25200.00,0
23.861111,-19175.00,0
23.866667,-25200.00,0
23.872222,-19175.00,0
23.877778,-25200.00,0
23.883333,-19175.00,0
23.888889,6987.50,0
23.894444,-23000.00,0
23.900000,23237.50,0
23.905556,-9550.00,0
23.911111,-24487.50,0
23.916667,-19175.00,0
23.922222,-25000.00,0
23.927778,-15175.00,0
23.933333,-25000.00,0
23.938889,-15975.00,0
23.944444,-24737.50,0
23.950000,-15975.00,0
23.955556,-25000.00,0
23.961111,-15375.00,0
23.966667,-24975.00,0
23.972222,-14975.00,0
23.977778,-8850.00,0
23.983333,-2062.50,0
23.988889,5125.00,0
23.994444,-1737.50,0
24.000000,-4912.50,0
24.005556,-4275.00,0
24.011111,5112.50,0
24.016667,-15337.50,0
24.022222,5262.50,0
24.027778,-1725.00,0
24.033333,5337.50,0
24.038889,11512.50,0
24.044444,4275.00,0
24.050000,-1712.50,1
24.055556,15125.00,0
24.061111,-2050.00,0
24.066667,5137.50,0
24.072222,-1750.00,0
24.077778,-11525.00,0
24.083333,-462.50,0
24.088889,5112.50,0
24.094444,-5125.00,0
24.100000,14287.50,0
24.105556,-2662.50,0
24.111111,5137.50,0
24.116667,8525.00,0
24.122222,5462.50,0
24.127778,-1712.50,1
24.133333,5325.00,0
24.138889,8312.50,0
24.144444,6862.50,0
24.150000,-1737.50,0
24.155556,-5125.00,0
24.161111,-2462.50,0
24.166667,5112.50,0
24.172222,-1925.00,0
24.177778,-1712.50,1
24.183333,-6862.50,0
24.188889,5137.50,0
24.194444,8725.00,0
24.200000,5662.50,0
24.205556,-1712.50,1
24.211111,5125.00,0
24.216667,5112.50,0
24.222222,10862.50,0
24.227778,-1712.50,1
24.233333,-8850.00,0
24.238889,-2062.50,0
24.244444,5125.00,0
24.250000,-1737.50,0
24.255556,-4912.50,0
24.261111,-1075.00,0
24.266667,5112.50,0
24.272222,13262.50,0
24.277778,5262.50,0
24.283333,-1725.00,0
24.288889,5337.50,0
24.294444,8312.50,0
24.300000,4275.00,0
24.305556,-1712.50,1
24.311111,-16662.50,0
24.316667,-2062.50,0
24.322222,5125.00,0
24.327778,-1737.50,0
24.333333,-11512.50,0
24.338889,-675.00,0
24.344444,5112.50,0
24.350000,-5137.50,0
24.355556,7687.50,0
24.361111,-2050.00,0
24.366667,5137.50,0
24.372222,8525.00,0
24.377778,5862.50,0
24.383333,-1712.50,1
24.388889,8525.00,0
24.394444,8312.50,0
24.400000,3650.00,0
24.405556,-1737.50,0
24.411111,-1925.00,0
24.416667,-2462.50,0
24.422222,5112.50,0
24.427778,-1925.00,0
24.433333,-1712.50,1
24.438889,-6862.50,0
24.444444,5137.50,0
24.450000,8725.00,0
24.455556,5462.50,0
24.461111,-1712.50,1
24.466667,5325.00,0
24.472222,5112.50,0
24.477778,10462.50,0
24.483333,-1712.50,1
24.488889,-8850.00,0
24.494444,-2062.50,0
24.500000,5125.00,0
24.505556,-1737.50,0
24.511111,-4912.50,0
24.516667,-4275.00,0
24.522222,5112.50,0
24.527778,-18737.50,0
24.533333,5462.50,0
24.538889,-1725.00,0
24.544444,5137.50,0
24.550000,8312.50,0
24.555556,7475.00,0
24.561111,-1712.50,1
24.566667,12537.50,0
24.572222,-2062.50,0
24.577778,5125.00,0
24.583333,-1737.50,0
24.588889,-8312.50,0
24.594444,-475.00,0
24.600000,5112.50,0
24.605556,-8537.50,0
24.611111,7687.50,0
24.616667,-1850.00,0
24.622222,5137.50,0
24.627778,11725.00,0
24.633333,5862.50,0
24.638889,-1712.50,1
24.644444,8525.00,0
24.650000,8312.50,0
24.655556,6050.00,0
24.661111,-1737.50,0
24.666667,-1925.00,0
24.672222,-2462.50,0
24.677778,5112.50,0
24.683333,-1925.00,0
24.688889,-1712.50,1
24.694444,-9862.50,0
24.700000,5137.50,0
24.705556,8725.00,0
24.711111,5462.50,0
24.716667,-1712.50,1
24.722222,5325.00,0
24.727778,5112.50,0
24.733333,10475.00,0
24.738889,-1725.00,0
24.744444,-8762.50,0
24.750000,-2062.50,0
24.755556,5125.00,0
24.761111,-1937.50,0
24.766667,-4912.50,0
24.772222,-3875.00,0
24.777778,5112.50,0
24.783333,23062.50,0
24.788889,5262.50,0
24.794444,-1725.00,0
24.800000,5337.50,0
24.805556,8312.50,0
24.811111,7275.00,0
24.816667,-1712.50,1
24.822222,15537.50,0
24.827778,-2062.50,0
24.833333,5125.00,0
24.838889,-1737.50,0
24.844444,-8312.50,0
24.850000,-475.00,0
24.855556,5112.50,0
24.861111,-11737.50,0
24.866667,4275.00,0
24.872222,-1750.00,0
24.877778,5137.50,0
24.883333,21125.00,0
24.888889,3462.50,0
24.894444,-1712.50,1
24.900000,8525.00,0
24.905556,11512.50,0
24.911111,3662.50,0
24.916667,-1737.50,0
24.922222,-1925.00,0
24.927778,-2262.50,0
24.933333,5112.50,0
24.938889,-1925.00,0
24.944444,-1712.50,1
24.950000,-10062.50,0
24.955556,5137.50,0
24.961111,8725.00,0
24.966667,5462.50,0
24.972222,-1712.50,1
24.977778,5325.00,0
24.983333,5112.50,0
24.988889,7262.50,0
24.994444,-1725.00,0
25.000000,-5537.50,0
25.005556,-2062.50,0
25.011111,5125.00,0
25.016667,-1937.50,0
25.022222,-1712.50,1
25.027778,-7075.00,0
25.033333,5112.50,0
25.038889,13062.50,0
25.044444,5462.50,0
25.050000,-1725.00,0
25.055556,5137.50,0
25.061111,8312.50,0
25.066667,7675.00,0
25.072222,-1712.50,1
25.077778,12137.50,0
25.083333,-2062.50,0
25.088889,5125.00,0
25.094444,-1737.50,0
25.100000,-8112.50,0
25.105556,-1075.00,0
25.111111,5112.50,0
25.116667,-8537.50,0
25.122222,6075.00,0
25.127778,-1750.00,0
25.133333,5137.50,0
25.138889,18125.00,0
25.144444,5862.50,0
25.150000,-1712.50,1
25.155556,8525.00,0
25.161111,11512.50,0
25.166667,3662.50,0
25.172222,-1737.50,0
25.177778,-1925.00,0
25.183333,-2262.50,0
25.188889,5112.50,0
25.194444,-1925.00,0
25.200000,-1712.50,1
25.205556,-10262.50,0
25.211111,5137.50,0
25.216667,8725.00,0
25.222222,5662.50,0
25.227778,-1712.50,1
25.233333,5325.00,0
25.238889,5112.50,0
25.244444,7075.00,0
25.250000,-1737.50,0
25.255556,-5537.50,0
25.261111,-2062.50,0
25.266667,5125.00,0
25.272222,-1937.50,0
25.277778,-1712.50,1
25.283333,-7075.00,0
25.288889,5112.50,0
25.294444,12862.50,0
25.300000,5462.50,0
25.305556,-1725.00,0
25.311111,5137.50,0
25.316667,8312.50,0
25.322222,7475.00,0
25.327778,-1712.50,1
25.333333,10137.50,0
25.338889,-2062.50,0
25.344444,5125.00,0
25.350000,-1737.50,0
25.355556,-8112.50,0
25.361111,-1075.00,0
25.366667,5112.50,0
25.372222,-8537.50,0
25.377778,5875.00,0
25.383333,-1750.00,0
25.388889,5137.50,0
25.394444,18125.00,0
25.400000,3662.50,0
25.405556,-1712.50,1
25.411111,8525.00,0
25.416667,11512.50,0
25.422222,6062.50,0
25.427778,-1737.50,0
25.433333,-1925.00,0
25.438889,-2262.50,0
25.444444,5112.50,0
25.450000,-1925.00,0
25.455556,-1712.50,1
25.461111,-10062.50,0
25.466667,5137.50,0
25.472222,8725.00,0
25.477778,5462.50,0
25.483333,-1712.50,1
25.488889,5325.00,0
25.494444,5112.50,0
25.500000,7275.00,0
25.505556,-1737.50,0
25.511111,-5537.50,0
25.516667,-2062.50,0
25.522222,5125.00,0
25.527778,-1937.50,0
25.533333,-1712.50,1
25.538889,-7075.00,0
25.544444,5112.50,0
25.550000,10062.50,0
25.555556,5262.50,0
25.561111,-1725.00,0
25.566667,5337.50,0
25.572222,8312.50,0
25.577778,7275.00,0
25.583333,-1712.50,1
25.588889,15537.50,0
25.594444,-1862.50,0
25.600000,5125.00,0
25.605556,-1937.50,0
25.611111,-8112.50,0
25.616667,-675.00,0
25.622222,5112.50,0
25.627778,-8537.50,0
25.633333,5262.50,0
25.638889,-1725.00,0
25.644444,5137.50,0
25.650000,15125.00,0
25.655556,3662.50,0
25.661111,-1712.50,1
25.666667,-23537.50,0
25.672222,17600.00,0
25.677778,-23362.50,0
25.683333,-25600.00,0
25.688889,-19200.00,0
25.694444,-19150.00,0
25.700000,3862.50,0
25.705556,-19162.50,0
25.711111,-25000.00,0
25.716667,-19162.50,0
25.722222,-25000.00,0
25.727778,-19162.50,0
25.733333,-21762.50,0
25.738889,-19150.00,0
25.744444,-2550.00,0
25.750000,-19162.50,0
25.755556,-5712.50,0
25.761111,-19150.00,0
25.766667,-24900.00,0
25.772222,-19162.50,0
25.777778,-21800.00,0
25.783333,-19150.00,0
25.788889,-24950.00,0
25.794444,-19162.50,0
25.800000,-25000.00,0
25.805556,-19162.50,0
25.811111,-18600.00,0
25.816667,-23550.00,0
25.822222,8525.00,0
25.827778,14712.50,0
25.833333,6050.00,0
25.838889,-1737.50,0
25.844444,-1925.00,0
25.850000,-2262.50,0
25.855556,5112.50,0
25.861111,-1925.00,0
25.866667,-4912.50,0
25.872222,-6062.50,0
25.877778,5137.50,0
25.883333,8525.00,0
25.888889,5862.50,0
25.894444,-1712.50,1
25.900000,5325.00,0
25.905556,5112.50,0
25.911111,7262.50,0
25.916667,-1737.50,0
25.922222,-5525.00,0
25.927778,-2062.50,0
25.933333,5125.00,0
25.938889,-1737.50,0
25.944444,-1712.50,1
25.950000,-7475.00,0
25.955556,5112.50,0
25.961111,12262.50,0
25.966667,5462.50,0
25.972222,-1725.00,0
25.977778,5137.50,0
25.983333,8312.50,0
25.988889,7675.00,0
25.994444,-1712.50,1
26.000000,18537.50,0
26.005556,-1862.50,0
26.011111,5125.00,0
26.016667,-1937.50,0
26.022222,-8112.50,0
26.027778,-875.00,0
26.033333,5112.50,0
26.038889,-11737.50,0
26.044444,5262.50,0
26.050000,-1725.00,0
26.055556,5137.50,0
26.061111,18312.50,0
26.066667,4075.00,0
26.072222,-1712.50,1
26.077778,8525.00,0
26.083333,21112.50,0
26.088889,6062.50,0
26.094444,-1725.00,0
26.100000,-5125.00,0
26.105556,-2262.50,0
26.111111,5112.50,0
26.116667,-1925.00,0
26.122222,-1712.50,1
26.127778,-3462.50,0
26.133333,5137.50,0
26.138889,5525.00,0
26.144444,5462.50,0
26.150000,-1712.50,1
26.155556,5325.00,0
26.161111,5112.50,0
26.166667,10262.50,0
26.172222,-1737.50,0
26.177778,-5337.50,0
26.183333,-2262.50,0
26.188889,5125.00,0
26.194444,-1725.00,0
26.200000,-1712.50,1
26.205556,-7475.00,0
26.211111,5112.50,0
26.216667,15637.50,0
26.222222,5462.50,0
26.227778,-1725.00,0
26.233333,5137.50,0
26.238889,8312.50,0
26.244444,7675.00,0
26.250000,-1712.50,1
26.255556,15537.50,0
26.261111,-2062.50,0
26.266667,5125.00,0
26.272222,-1725.00,0
26.277778,-8112.50,0
26.283333,-1075.00,0
26.288889,5112.50,0
26.294444,-11737.50,0
26.300000,5250.00,0
26.305556,-1725.00,0
26.311111,5137.50,0
26.316667,18112.50,0
26.322222,4275.00,0
26.327778,-1712.50,1
26.333333,8525.00,0
26.338889,-14087.50,0
26.344444,3462.50,0
26.350000,-1737.50,0
26.355556,-5125.00,0
26.361111,-2262.50,0
26.366667,5112.50,0
26.372222,-1925.00,0
26.377778,-1712.50,1
26.383333,-9462.50,0
26.388889,5137.50,0
26.394444,5325.00,0
26.400000,5875.00,0
26.405556,-1712.50,1
26.411111,5325.00,0
26.416667,8312.50,0
26.422222,7262.50,0
26.427778,-1737.50,0
26.433333,-5537.50,0
26.438889,-2062.50,0
26.444444,5125.00,0
26.450000,-1937.50,0
26.455556,-1712.50,1
26.461111,-7075.00,0
26.466667,5112.50,0
26.472222,12662.50,0
26.477778,5462.50,0
26.483333,-1725.00,0
26.488889,5137.50,0
26.494444,8312.50,0
26.500000,7675.00,0
26.505556,-1712.50,1
26.511111,18737.50,0
26.516667,-2062.50,0
26.522222,5125.00,0
26.527778,-1737.50,0
26.533333,-8112.50,0
26.538889,-1075.00,0
26.544444,5112.50,0
26.550000,-11937.50,0
26.555556,5462.50,0
26.561111,-1725.00,0
26.566667,5137.50,0
26.572222,14925.00,0
26.577778,4062.50,0
26.583333,-1712.50,1
26.588889,8725.00,0
26.594444,-14087.50,0
26.600000,5650.00,0
26.605556,-1725.00,0
26.611111,-5125.00,0
26.616667,-2475.00,0
26.622222,5112.50,0
26.627778,-1925.00,0
26.633333,-1712.50,1
26.638889,-9050.00,0
26.644444,5137.50,0
26.650000,5087.50,0
26.655556,-7487.50,0
26.661111,-1712.50,1
26.666667,11512.50,0
26.672222,5162.50,0
26.677778,-24687.50,0
26.683333,-4912.50,0
26.688889,-2062.50,0
26.694444,7487.50,0
26.700000,5112.50,0
26.705556,-8312.50,0
26.711111,-1737.50,0
26.716667,15287.50,0
26.722222,5112.50,0
26.727778,12475.00,0
26.733333,-4087.50,0
26.738889,-1712.50,1
26.744444,8312.50,0
26.750000,5025.00,0
26.755556,-8287.50,0
26.761111,-1712.50,1
26.766667,-6887.50,0
26.772222,7487.50,0
26.777778,5112.50,0
26.783333,-4912.50,0
26.788889,-1650.00,0
26.794444,11687.50,0
26.800000,5112.50,0
26.805556,13887.50,0
26.811111,-4287.50,0
26.816667,-1712.50,1
26.822222,8512.50,0
26.827778,5075.00,0
26.833333,-8487.50,0
26.838889,-1712.50,1
26.844444,14912.50,0
26.850000,5075.00,0
26.855556,10112.50,0
26.861111,-4912.50,0
26.866667,-1875.00,0
26.872222,7287.50,0
26.877778,5112.50,0
26.883333,-8312.50,0
26.888889,-1737.50,0
26.894444,-9312.50,0
26.900000,8312.50,0
26.905556,5250.00,0
26.911111,-3687.50,0
26.916667,-1712.50,1
26.922222,11712.50,0
26.927778,5125.00,0
26.933333,16712.50,0
26.938889,-4912.50,0
26.944444,-2050.00,0
26.950000,7487.50,0
26.955556,5112.50,0
26.961111,-8312.50,0
26.966667,-1737.50,0
26.972222,15287.50,0
26.977778,5112.50,0
26.983333,12275.00,0
26.988889,-4087.50,0
26.994444,-1712.50,1
27.000000,8312.50,0
27.005556,5175.00,0
27.011111,-8287.50,0
27.016667,-1712.50,1
27.022222,-10087.50,0
27.027778,7487.50,0
27.033333,5112.50,0
27.038889,-4912.50,0
27.044444,-1650.00,0
27.050000,11687.50,0
27.055556,5112.50,0
27.061111,20287.50,0
27.066667,-4287.50,0
27.072222,-1712.50,1
27.077778,8312.50,0
27.083333,5275.00,0
27.088889,-8487.50,0
27.094444,-1712.50,1
27.100000,18312.50,0
27.105556,5087.50,0
27.111111,8912.50,0
27.116667,-4912.50,0
27.122222,-1887.50,0
27.127778,10487.50,0
27.133333,5112.50,0
27.138889,-8312.50,0
27.144444,-1737.50,0
27.150000,-12512.50,0
27.155556,8312.50,0
27.161111,5250.00,0
27.166667,-3687.50,0
27.172222,-1712.50,1
27.177778,11712.50,0
27.183333,5125.00,0
27.188889,16725.00,0
27.194444,-4912.50,0
27.200000,-2075.00,0
27.205556,7487.50,0
27.211111,5112.50,0
27.216667,-8312.50,0
27.222222,-1737.50,0
27.227778,18487.50,0
27.233333,5112.50,0
27.238889,9075.00,0
27.244444,-4087.50,0
27.250000,-1712.50,1
27.255556,11712.50,0
27.261111,5162.50,0
27.266667,-11887.50,0
27.272222,-1712.50,1
27.277778,-12275.00,0
27.283333,7687.50,0
27.288889,5112.50,0
27.294444,-5112.50,0
27.300000,-1662.50,0
27.305556,12087.50,0
27.311111,5112.50,0
27.316667,20087.50,0
27.322222,-4287.50,0
27.327778,-1712.50,1
27.333333,8312.50,0
27.338889,5275.00,0
27.344444,-5487.50,0
27.350000,-1712.50,1
27.355556,15112.50,0
27.361111,5287.50,0
27.366667,8512.50,0
27.372222,-4912.50,0
27.377778,-1887.50,0
27.383333,10287.50,0
27.388889,5112.50,0
27.394444,-11512.50,0
27.400000,-1800.00,0
27.405556,-6512.50,0
27.411111,8312.50,0
27.416667,5250.00,0
27.422222,-3887.50,0
27.427778,-1712.50,1
27.433333,11712.50,0
27.438889,5137.50,0
27.444444,16712.50,0
27.450000,-4912.50,0
27.455556,-2062.50,0
27.461111,7487.50,0
27.466667,5112.50,0
27.472222,-8312.50,0
27.477778,-1737.50,0
27.483333,15287.50,0
27.488889,5112.50,0
27.494444,9062.50,0
27.500000,-4087.50,0
27.505556,-1712.50,1
27.511111,-23537.50,0
27.516667,17600.00,0
27.522222,-23362.50,0
27.527778,-25600.00,0
27.533333,16000.00,0
27.538889,-11600.00,0
27.544444,-12400.00,0
27.550000,-19162.50,0
27.555556,-24650.00,0
27.561111,-15375.00,0
27.566667,-15375.00,0
27.572222,-19162.50,0
27.577778,-25000.00,0
27.583333,-15962.50,0
27.588889,-9000.00,0
27.594444,-12362.50,0
27.600000,-11975.00,0
27.605556,-23562.50,0
27.611111,-6237.50,0
27.616667,-23550.00,0
27.622222,-19037.50,0
27.627778,-19137.50,0
27.633333,-8887.50,0
27.638889,-15362.50,0
27.644444,-24925.00,0
27.650000,-15175.00,0
27.655556,-24650.00,0
27.661111,-15575.00,0
27.666667,11512.50,0
27.672222,5175.00,0
27.677778,-8487.50,0
27.683333,-1712.50,1
27.688889,-8875.00,0
27.694444,7487.50,0
27.700000,5112.50,0
27.705556,-4912.50,0
27.711111,-1662.50,0
27.716667,11887.50,0
27.722222,5112.50,0
27.727778,13287.50,0
27.733333,-4287.50,0
27.738889,-1712.50,1
27.744444,8512.50,0
27.750000,5062.50,0
27.755556,-8487.50,0
27.761111,-1712.50,1
27.766667,15112.50,0
27.772222,5887.50,0
27.777778,8312.50,0
27.783333,-4912.50,0
27.788889,-1675.00,0
27.794444,12287.50,0
27.800000,5112.50,0
27.805556,-8312.50,0
27.811111,-1650.00,0
27.816667,-6912.50,0
27.822222,8312.50,0
27.827778,5250.00,0
27.833333,-4087.50,0
27.838889,-1712.50,1
27.844444,11712.50,0
27.850000,5125.00,0
27.855556,18912.50,0
27.861111,-4912.50,0
27.866667,-2050.00,0
27.872222,7287.50,0
27.877778,5112.50,0
27.883333,-8312.50,0
27.888889,-1737.50,0
27.894444,22287.50,0
27.900000,5112.50,0
27.905556,9075.00,0
27.911111,-4087.50,0
27.916667,-1712.50,1
27.922222,8512.50,0
27.927778,5162.50,0
27.933333,-11687.50,0
27.938889,-1712.50,1
27.944444,-8675.00,0
27.950000,7687.50,0
27.955556,5112.50,0
27.961111,-4912.50,0
27.966667,-1650.00,0
27.972222,11687.50,0
27.977778,5112.50,0
27.983333,13287.50,0
27.988889,-4287.50,0
27.994444,-1712.50,1
28.000000,8312.50,0
28.005556,5262.50,0
28.011111,-5687.50,0
28.016667,-1712.50,1
28.022222,21312.50,0
28.027778,3687.50,0
28.033333,11512.50,0
28.038889,-4912.50,0
28.044444,-1887.50,0
28.050000,9087.50,0
28.055556,5112.50,0
28.061111,-8312.50,0
28.066667,-1637.50,0
28.072222,-3512.50,0
28.077778,8312.50,0
28.083333,5262.50,0
28.088889,-6887.50,0
28.094444,-1712.50,1
28.100000,11912.50,0
28.105556,5137.50,0
28.111111,10512.50,0
28.116667,-4912.50,0
28.122222,-1850.00,0
28.127778,7487.50,0
28.133333,5112.50,0
28.138889,-14712.50,0
28.144444,-1725.00,0
28.150000,18887.50,0
28.155556,8312.50,0
28.161111,5662.50,0
28.166667,-4087.50,0
28.172222,-1712.50,1
28.177778,11512.50,0
28.183333,5150.00,0
28.188889,-8487.50,0
28.194444,-1712.50,1
28.200000,-3475.00,0
28.205556,7487.50,0
28.211111,5112.50,0
28.216667,-5112.50,0
28.222222,-1662.50,0
28.227778,14887.50,0
28.233333,5112.50,0
28.238889,16675.00,0
28.244444,-4287.50,0
28.250000,-1712.50,1
28.255556,8312.50,0
28.261111,5262.50,0
28.266667,-8687.50,0
28.272222,-1712.50,1
28.277778,18712.50,0
28.283333,7687.50,0
28.288889,5112.50,0
28.294444,-4912.50,0
28.300000,-1875.00,0
28.305556,9087.50,0
28.311111,5112.50,0
28.316667,-14712.50,0
28.322222,-1637.50,0
28.327778,-8712.50,0
28.333333,8312.50,0
28.338889,5275.00,0
28.344444,-9087.50,0
28.350000,-1712.50,1
28.355556,11712.50,0
28.361111,5137.50,0
28.366667,13712.50,0
28.372222,-4912.50,0
28.377778,-1837.50,0
28.383333,6887.50,0
28.388889,5112.50,0
28.394444,-5112.50,0
28.400000,-1737.50,0
28.405556,-13712.50,0
28.411111,8312.50,0
28.416667,5262.50,0
28.422222,-887.50,0
28.427778,-1712.50,1
28.433333,8312.50,0
28.438889,5137.50,0
28.444444,-8487.50,0
28.450000,-1712.50,1
28.455556,-6887.50,0
28.461111,7487.50,0
28.466667,5112.50,0
28.472222,-4912.50,0
28.477778,-1775.00,0
28.483333,11887.50,0
28.488889,5112.50,0
28.494444,10487.50,0
28.500000,-4087.50,0
28.505556,-1712.50,1
28.511111,8312.50,0
28.516667,5262.50,0
28.522222,-11887.50,0
28.527778,-1712.50,1
28.533333,18512.50,0
28.538889,7687.50,0
28.544444,5112.50,0
28.550000,-4912.50,0
28.555556,-1875.00,0
28.561111,8887.50,0
28.566667,5112.50,0
28.572222,-11512.50,0
28.577778,-1662.50,0
28.583333,-5512.50,0
28.588889,8312.50,0
28.594444,5275.00,0
28.600000,-7087.50,0
28.605556,-1712.50,1
28.611111,14912.50,0
28.616667,5137.50,0
28.622222,18512.50,0
28.627778,-4912.50,0
28.633333,-2050.00,0
28.638889,7287.50,0
28.644444,5112.50,0
28.650000,-8312.50,0
28.655556,-1737.50,0
28.661111,-10312.50,0
28.666667,8312.50,0
28.672222,5462.50,0
28.677778,-4087.50,0
28.683333,-1712.50,1
28.688889,11712.50,0
28.694444,5137.50,0
28.700000,-15087.50,0
28.705556,-1712.50,1
28.711111,-8675.00,0
28.716667,7487.50,0
28.722222,5112.50,0
28.727778,-4912.50,0
28.733333,-1612.50,0
28.738889,11887.50,0
28.744444,5112.50,0
28.750000,10087.50,0
28.755556,-4287.50,0
28.761111,-1712.50,1
28.766667,8312.50,0
28.772222,5250.00,0
28.777778,-8687.50,0
28.783333,-1712.50,1
28.788889,-13687.50,0
28.794444,7687.50,0
28.800000,5112.50,0
28.805556,-4912.50,0
28.811111,-1875.00,0
28.816667,11887.50,0
28.822222,5112.50,0
28.827778,-11712.50,0
28.833333,-1675.00,0
28.838889,-5712.50,0
28.844444,8312.50,0
28.850000,5275.00,0
28.855556,-7087.50,0
28.861111,-1712.50,1
28.866667,11712.50,0
28.872222,5137.50,0
28.877778,13512.50,0
28.883333,-4912.50,0
28.888889,-1850.00,0
28.894444,7087.50,0
28.900000,5112.50,0
28.905556,-8312.50,0
28.911111,-1737.50,0
28.916667,25087.50,0
28.922222,8312.50,0
28.927778,5662.50,0
28.933333,-4087.50,0
28.938889,-1712.50,1
28.944444,11512.50,0
28.950000,5150.00,0
28.955556,-11487.50,0
28.961111,-1712.50,1
28.966667,-8875.00,0
28.972222,7487.50,0
28.977778,5112.50,0
28.983333,-4912.50,0
28.988889,-1625.00,0
28.994444,11687.50,0
29.000000,5112.50,0
29.005556,13487.50,0
29.011111,-4087.50,0
29.016667,-1712.50,1
29.022222,8312.50,0
29.027778,5050.00,0
29.033333,-8287.50,0
29.038889,-1712.50,1
29.044444,-20087.50,0
29.050000,7687.50,0
29.055556,5112.50,0
29.061111,-4912.50,0
29.066667,-1875.00,0
29.072222,11887.50,0
29.077778,5112.50,0
29.083333,-11512.50,0
29.088889,-1675.00,0
29.094444,-5912.50,0
29.100000,5112.50,0
29.105556,5275.00,0
29.111111,-3887.50,0
29.116667,-1712.50,1
29.122222,18112.50,0
29.127778,5137.50,0
29.133333,12512.50,0
29.138889,-4912.50,0
29.144444,-1850.00,0
29.150000,7087.50,0
29.155556,5112.50,0
29.161111,-8312.50,0
29.166667,-1725.00,0
29.172222,-10325.00,0
29.177778,8312.50,0
29.183333,5675.00,0
29.188889,-4087.50,0
29.194444,-1712.50,1
29.200000,11712.50,0
29.205556,5137.50,0
29.211111,-11887.50,0
29.216667,-1712.50,1
29.222222,-9075.00,0
29.227778,7487.50,0
29.233333,5112.50,0
29.238889,-4912.50,0
29.244444,-1762.50,0
29.250000,11687.50,0
29.255556,5112.50,0
29.261111,10087.50,0
29.266667,-4087.50,0
29.272222,-1712.50,1
29.277778,8312.50,0
29.283333,5037.50,0
29.288889,-8487.50,0
29.294444,-1712.50,1
29.300000,-15887.50,0
29.305556,7487.50,0
29.311111,5112.50,0
29.316667,-4912.50,0
29.322222,-1875.00,0
29.327778,12287.50,0
29.333333,5112.50,0
29.338889,-14912.50,0
29.344444,-1887.50,0
29.350000,-5112.50,0
29.355556,-23537.50,0
29.361111,17600.00,0
29.366667,-23362.50,0
29.372222,-25600.00,0
29.377778,-9600.00,0
29.383333,-14962.50,0
29.388889,-18800.00,0
29.394444,-14962.50,0
29.400000,-24937.50,0
29.405556,-15575.00,0
29.411111,-8937.50,0
29.416667,-19162.50,0
29.422222,-21175.00,0
29.427778,-19125.00,0
29.433333,-5787.50,0
29.438889,-15162.50,0
29.444444,-12400.00,0
29.450000,-10137.50,0
29.455556,16400.00,0
29.461111,-15775.00,0
29.466667,-12162.50,0
29.472222,-19162.50,0
29.477778,-2587.50,0
29.483333,-14362.50,0
29.488889,-25200.00,0
29.494444,-23562.50,0
29.500000,-19037.50,0
29.505556,-19137.50,0
29.511111,8312.50,0
29.516667,5287.50,0
29.522222,-6887.50,0
29.527778,-1712.50,1
29.533333,14912.50,0
29.538889,5162.50,0
29.544444,12512.50,0
29.550000,-4912.50,0
29.555556,-1862.50,0
29.561111,7087.50,0
29.566667,5112.50,0
29.572222,-8312.50,0
29.577778,-1737.50,0
29.583333,-9712.50,0
29.588889,8312.50,0
29.594444,5462.50,0
29.600000,-4087.50,0
29.605556,-1712.50,1
29.611111,11712.50,0
29.616667,5137.50,0
29.622222,-18087.50,0
29.627778,-1712.50,1
29.633333,-5875.00,0
29.638889,7487.50,0
29.644444,5112.50,0
29.650000,-8312.50,0
29.655556,-1750.00,0
29.661111,15287.50,0
29.666667,5112.50,0
29.672222,10275.00,0
29.677778,-4287.50,0
29.683333,-1712.50,1
29.688889,8512.50,0
29.694444,5062.50,0
29.700000,-8487.50,0
29.705556,-1712.50,1
29.711111,-13487.50,0
29.716667,7487.50,0
29.722222,5112.50,0
29.727778,-4912.50,0
29.733333,-1862.50,0
29.738889,12287.50,0
29.744444,5112.50,0
29.750000,-18112.50,0
29.755556,-2087.50,0
29.761111,-5112.50,0
29.766667,8312.50,0
29.772222,5275.00,0
29.777778,-9287.50,0
29.783333,-1712.50,1
29.788889,14912.50,0
29.794444,5050.00,0
29.800000,10112.50,0
29.805556,-1725.00,0
29.811111,-1850.00,0
29.816667,-17737.50,0
29.822222,5112.50,0
29.827778,-8125.00,0
29.833333,-1712.50,1
29.838889,-10237.50,0
29.844444,5112.50,0
29.850000,8637.50,0
29.855556,14737.50,0
29.861111,-1712.50,1
29.866667,8312.50,0
29.872222,5112.50,0
29.877778,-15125.00,0
29.883333,-1712.50,1
29.888889,-5250.00,0
29.894444,-14537.50,0
29.900000,5112.50,0
29.905556,-4912.50,0
29.911111,-1925.00,0
29.916667,16550.00,0
29.922222,5112.50,0
29.927778,10262.50,0
29.933333,14737.50,0
29.938889,-1712.50,1
29.944444,8312.50,0
29.950000,5337.50,0
29.955556,-16800.00,0
29.961111,-1712.50,1
29.966667,-13675.00,0
29.972222,-8125.00,0
29.977778,5112.50,0
29.983333,-1712.50,1
29.988889,-2162.50,0
29.994444,7437.50,0
30.000000,5112.50,0
30.005556,-17925.00,0
30.011111,-10850.00,0
30.016667,-1712.50,1
30.022222,5112.50,0
30.027778,3962.50,0
30.033333,-10662.50,0
30.038889,-1712.50,1
30.044444,11725.00,0
30.050000,5112.50,0
30.055556,12050.00,0
30.061111,-1712.50,1
30.066667,-1825.00,0
30.072222,17462.50,0
30.077778,5112.50,0
30.083333,-8312.50,0
30.088889,-1712.50,1
30.094444,-9075.00,0
30.100000,5112.50,0
30.105556,5450.00,0
30.111111,-10875.00,0
30.116667,-1712.50,1
30.122222,8325.00,0
30.127778,5112.50,0
30.133333,-18137.50,0
30.138889,-1712.50,1
30.144444,-5462.50,0
30.150000,-11325.00,0
30.155556,5112.50,0
30.161111,-4912.50,0
30.166667,-1725.00,0
30.172222,18537.50,0
30.177778,5112.50,0
30.183333,12662.50,0
30.188889,11537.50,0
30.194444,-1712.50,1
30.200000,8312.50,0
30.205556,5337.50,0
30.211111,-13625.00,0
30.216667,-1712.50,1
30.222222,-13475.00,0
30.227778,-8125.00,0
30.233333,5112.50,0
30.238889,-1712.50,1
30.244444,-2350.00,0
30.250000,7425.00,0
30.255556,5112.50,0
30.261111,-17925.00,0
30.266667,21137.50,0
30.272222,-1712.50,1
30.277778,5112.50,0
30.283333,3975.00,0
30.288889,-7450.00,0
30.294444,-1712.50,1
30.300000,14925.00,0
30.305556,5112.50,0
30.311111,12025.00,0
30.316667,-1712.50,1
30.322222,-1987.50,0
30.327778,20662.50,0
30.333333,5112.50,0
30.338889,-8325.00,0
30.344444,-1712.50,1
30.350000,-12037.50,0
30.355556,5112.50,0
30.361111,8637.50,0
30.366667,14737.50,0
30.372222,-1712.50,1
30.377778,8312.50,0
30.383333,5112.50,0
30.388889,-24525.00,0
30.394444,-1712.50,1
30.400000,-5450.00,0
30.405556,-14537.50,0
30.411111,5112.50,0
30.416667,-4912.50,0
30.422222,-1725.00,0
30.427778,21550.00,0
30.433333,5112.50,0
30.438889,10062.50,0
30.444444,14737.50,0
30.450000,-1712.50,1
30.455556,8312.50,0
30.461111,5325.00,0
30.466667,-16750.00,0
30.472222,-1712.50,1
30.477778,-13675.00,0
30.483333,-8125.00,0
30.488889,5112.50,0
30.494444,-1712.50,1
30.500000,-2150.00,0
30.505556,7437.50,0
30.511111,5112.50,0
30.516667,-17925.00,0
30.522222,11525.00,0
30.527778,-1712.50,1
30.533333,5112.50,0
30.538889,7050.00,0
30.544444,-10650.00,0
30.550000,-1712.50,1
30.555556,11725.00,0
30.561111,5112.50,0
30.566667,12037.50,0
30.572222,-1712.50,1
30.577778,-1987.50,0
30.583333,20662.50,0
30.588889,5112.50,0
30.594444,-8325.00,0
30.600000,-1712.50,1
30.605556,-8837.50,0
30.611111,5112.50,0
30.616667,5437.50,0
30.622222,-14062.50,0
30.627778,-1712.50,1
30.633333,8312.50,0
30.638889,5112.50,0
30.644444,-15125.00,0
30.650000,-1712.50,1
30.655556,-5250.00,0
30.661111,-11337.50,0
30.666667,5112.50,0
30.672222,-4912.50,0
30.677778,-1725.00,0
30.683333,18350.00,0
30.688889,5112.50,0
30.694444,12462.50,0
30.700000,11537.50,0
30.705556,-1712.50,1
30.711111,8312.50,0
30.716667,5325.00,0
30.722222,-13550.00,0
30.727778,-1712.50,1
30.733333,-10262.50,0
30.738889,-8137.50,0
30.744444,5112.50,0
30.750000,-4912.50,0
30.755556,-2137.50,0
30.761111,13987.50,0
30.766667,5112.50,0
30.772222,-14725.00,0
30.777778,11525.00,0
30.783333,-1712.50,1
30.788889,5112.50,0
30.794444,9037.50,0
30.800000,-7437.50,0
30.805556,-1712.50,1
30.811111,11725.00,0
30.816667,5112.50,0
30.822222,8837.50,0
30.827778,-1712.50,1
30.833333,-1812.50,0
30.838889,-17737.50,0
30.844444,5112.50,0
30.850000,-8325.00,0
30.855556,-1712.50,1
30.861111,-8637.50,0
30.866667,5112.50,0
30.872222,5437.50,0
30.877778,-10862.50,0
30.883333,-1712.50,1
30.888889,8312.50,0
30.894444,5112.50,0
30.900000,-18325.00,0
30.905556,-1712.50,1
30.911111,-5250.00,0
30.916667,-11337.50,0
30.922222,5112.50,0
30.927778,-4912.50,0
30.933333,-1712.50,1
30.938889,18325.00,0
30.944444,5112.50,0
30.950000,12462.50,0
30.955556,11525.00,0
30.961111,-1712.50,1
30.966667,8312.50,0
30.972222,5337.50,0
30.977778,-13562.50,0
30.983333,-1712.50,1
30.988889,-10262.50,0
30.994444,-8137.50,0
31.000000,5112.50,0
31.005556,-4912.50,0
31.011111,-2137.50,0
31.016667,17012.50,0
31.022222,5112.50,0
31.027778,20275.00,0
31.033333,11525.00,0
31.038889,-1712.50,1
31.044444,8312.50,0
31.050000,3812.50,0
31.055556,-10637.50,0
31.061111,-1712.50,1
31.066667,14925.00,0
31.072222,5525.00,0
31.077778,8537.50,0
31.083333,-1712.50,1
31.088889,-1987.50,0
31.094444,-14737.50,0
31.100000,5112.50,0
31.105556,-8125.00,0
31.111111,-1712.50,1
31.116667,-6650.00,0
31.122222,5112.50,0
31.127778,5225.00,0
31.133333,-10862.50,0
31.138889,-1712.50,1
31.144444,8525.00,0
31.150000,5112.50,0
31.155556,22450.00,0
31.161111,-1712.50,1
31.166667,-5450.00,0
31.172222,-11325.00,0
31.177778,5112.50,0
31.183333,-4925.00,0
31.188889,-1712.50,1
31.194444,21537.50,0
31.200000,-23537.50,0
31.205556,17600.00,0
31.211111,-23362.50,0
31.216667,-25600.00,0
31.222222,-19212.50,0
31.227778,-15962.50,0
31.233333,-8912.50,0
31.238889,-15562.50,0
31.244444,400.00,0
31.250000,-10362.50,0
31.255556,-18800.00,0
31.261111,-14962.50,0
31.266667,-24937.50,0
31.272222,-15575.00,0
31.277778,-8937.50,0
31.283333,-19162.50,0
31.288889,-8975.00,0
31.294444,-14962.50,0
31.300000,16125.00,0
31.305556,-11600.00,0
31.311111,-22000.00,0
31.316667,-15962.50,0
31.322222,-24937.50,0
31.327778,-10375.00,0
31.333333,-22000.00,0
31.338889,-15162.50,0
31.344444,-9000.00,0
31.350000,-19162.50,0
31.355556,5112.50,0
31.361111,12462.50,0
31.366667,11525.00,0
31.372222,-1712.50,1
31.377778,8312.50,0
31.383333,5325.00,0
31.388889,-10337.50,0
31.394444,-1712.50,1
31.400000,-10262.50,0
31.405556,-8137.50,0
31.411111,5112.50,0
31.416667,-4912.50,0
31.422222,-1937.50,0
31.427778,13825.00,0
31.433333,5112.50,0
31.438889,20275.00,0
31.444444,11525.00,0
31.450000,-1712.50,1
31.455556,8312.50,0
31.461111,5975.00,0
31.466667,-10637.50,0
31.472222,-1712.50,1
31.477778,14925.00,0
31.483333,5725.00,0
31.488889,8337.50,0
31.494444,-1712.50,1
31.500000,-2000.00,0
31.505556,-11337.50,0
31.511111,5112.50,0
31.516667,-8325.00,0
31.522222,-1712.50,1
31.527778,-8637.50,0
31.533333,5112.50,0
31.538889,5225.00,0
31.544444,-14062.50,0
31.550000,-1712.50,1
31.555556,11712.50,0
31.561111,5112.50,0
31.566667,13075.00,0
31.572222,-1712.50,1
31.577778,-5250.00,0
31.583333,-11337.50,0
31.588889,5112.50,0
31.594444,-4912.50,0
31.600000,-1712.50,1
31.605556,21525.00,0
31.611111,5112.50,0
31.616667,9062.50,0
31.622222,17925.00,0
31.627778,-1712.50,1
31.633333,8312.50,0
31.638889,5325.00,0
31.644444,-13337.50,0
31.650000,-1712.50,1
31.655556,-10262.50,0
31.661111,-8125.00,0
31.666667,5112.50,0
31.672222,-1712.50,1
31.677778,-2150.00,0
31.683333,7575.00,0
31.688889,5112.50,0
31.694444,23475.00,0
31.700000,11525.00,0
31.705556,-1712.50,1
31.711111,5112.50,0
31.716667,9387.50,0
31.722222,-10637.50,0
31.727778,-1712.50,1
31.733333,11712.50,0
31.738889,9375.00,0
31.744444,8337.50,0
31.750000,-1712.50,1
31.755556,-1825.00,0
31.761111,14262.50,0
31.766667,5112.50,0
31.772222,-8325.00,0
31.777778,-1712.50,1
31.783333,-8850.00,0
31.788889,5112.50,0
31.794444,5437.50,0
31.800000,-14062.50,0
31.805556,-1712.50,1
31.811111,8325.00,0
31.816667,5112.50,0
31.822222,-18350.00,0
31.827778,-1712.50,1
31.833333,-5262.50,0
31.838889,-11325.00,0
31.844444,5112.50,0
31.850000,-4912.50,0
31.855556,-1725.00,0
31.861111,18537.50,0
31.866667,5112.50,0
31.872222,12062.50,0
31.877778,11537.50,0
31.883333,-1712.50,1
31.888889,8312.50,0
31.894444,5325.00,0
31.900000,-10350.00,0
31.905556,-1712.50,1
31.911111,-13275.00,0
31.916667,-8125.00,0
31.922222,5112.50,0
31.927778,-4912.50,0
31.933333,-2137.50,0
31.938889,17000.00,0
31.944444,5112.50,0
31.950000,23475.00,0
31.955556,11525.00,0
31.961111,-1712.50,1
31.966667,5112.50,0
31.972222,9575.00,0
31.977778,-10637.50,0
31.983333,-1712.50,1
31.988889,11725.00,0
31.994444,7337.50,0
32.000000,8325.00,0
32.005556,-1712.50,1
32.011111,-1975.00,0
32.016667,14262.50,0
32.022222,5112.50,0
32.027778,-8325.00,0
32.033333,-1712.50,1
32.038889,-9250.00,0
32.044444,5112.50,0
32.050000,5237.50,0
32.055556,-17262.50,0
32.061111,-1712.50,1
32.066667,11712.50,0
32.072222,5112.50,0
32.077778,12875.00,0
32.083333,-1712.50,1
32.088889,-5450.00,0
32.094444,-14525.00,0
32.100000,5112.50,0
32.105556,-4925.00,0
32.111111,-1712.50,1
32.116667,18337.50,0
32.122222,5112.50,0
32.127778,12662.50,0
32.133333,11525.00,0
32.138889,-1712.50,1
32.144444,8312.50,0
32.150000,5325.00,0
32.155556,-13337.50,0
32.161111,-1712.50,1
32.166667,-10062.50,0
32.172222,-8125.00,0
32.177778,5112.50,0
32.183333,-4912.50,0
32.188889,-1937.50,0
32.194444,17175.00,0
32.200000,5112.50,0
32.205556,20275.00,0
32.211111,11525.00,0
32.216667,-1712.50,1
32.222222,5112.50,0
32.227778,5975.00,0
32.233333,-4237.50,0
32.238889,-1712.50,1
32.244444,18125.00,0
32.250000,7562.50,0
32.255556,5125.00,0
32.261111,-1712.50,1
32.266667,-2037.50,0
32.272222,-11350.00,0
32.277778,5112.50,0
32.283333,-8325.00,0
32.288889,-1712.50,1
32.294444,-8837.50,0
32.300000,5112.50,0
32.305556,5225.00,0
32.311111,-14062.50,0
32.316667,-1712.50,1
32.322222,11725.00,0
32.327778,5112.50,0
32.333333,15450.00,0
32.338889,-1712.50,1
32.344444,-5250.00,0
32.350000,-11337.50,0
32.355556,5112.50,0
32.361111,-4912.50,0
32.366667,-1712.50,1
32.372222,18325.00,0
32.377778,5112.50,0
32.383333,9062.50,0
32.388889,17925.00,0
32.394444,-1712.50,1
32.400000,8312.50,0
32.405556,5125.00,0
32.411111,-15137.50,0
32.416667,-1712.50,1
32.422222,-6662.50,0
32.427778,-8125.00,0
32.433333,5112.50,0
32.438889,-4925.00,0
32.444444,-1925.00,0
32.450000,20000.00,0
32.455556,5112.50,0
32.461111,16875.00,0
32.466667,11525.00,0
32.472222,-1712.50,1
32.477778,5112.50,0
32.483333,5962.50,0
32.488889,-4225.00,0
32.494444,-1712.50,1
32.500000,15125.00,0
32.505556,10837.50,0
32.511111,5125.00,0
32.516667,-1712.50,1
32.522222,-2050.00,0
32.527778,14062.50,0
32.533333,5112.50,0
32.538889,-8125.00,0
32.544444,-1712.50,1
32.550000,-9450.00,0
